timestamp,ecg_measurement,qrs_detected
6.034140000000000000e+06,1.593352890000000022e+00,0.000000000000000000e+00
6.038012000000000000e+06,1.676441764800000067e+00,0.000000000000000000e+00
6.041904000000000000e+06,1.715542554800000064e+00,0.000000000000000000e+00
6.045784000000000000e+06,1.730205297399999953e+00,0.000000000000000000e+00
6.049652000000000000e+06,1.764418363499999920e+00,0.000000000000000000e+00
6.053532000000000000e+06,1.803519058200000025e+00,0.000000000000000000e+00
6.057412000000000000e+06,1.832844638799999926e+00,0.000000000000000000e+00
6.061296000000000000e+06,1.837732219600000105e+00,0.000000000000000000e+00
6.065180000000000000e+06,1.818181896200000036e+00,0.000000000000000000e+00
6.069064000000000000e+06,1.832844638799999926e+00,0.000000000000000000e+00
6.072948000000000000e+06,1.876832866600000038e+00,0.000000000000000000e+00
6.076836000000000000e+06,1.901270771000000082e+00,0.000000000000000000e+00
6.080708000000000000e+06,1.901270771000000082e+00,0.000000000000000000e+00
6.084572000000000000e+06,1.881720447500000004e+00,0.000000000000000000e+00
6.088452000000000000e+06,1.886608028399999970e+00,0.000000000000000000e+00
6.092320000000000000e+06,1.901270771000000082e+00,0.000000000000000000e+00
6.096192000000000000e+06,1.925708675299999895e+00,0.000000000000000000e+00
6.100064000000000000e+06,1.925708675299999895e+00,0.000000000000000000e+00
6.103940000000000000e+06,1.901270771000000082e+00,0.000000000000000000e+00
6.107816000000000000e+06,1.901270771000000082e+00,0.000000000000000000e+00
6.111688000000000000e+06,1.925708675299999895e+00,0.000000000000000000e+00
6.115568000000000000e+06,1.964809417699999949e+00,0.000000000000000000e+00
6.119444000000000000e+06,1.969696998499999907e+00,0.000000000000000000e+00
6.123312000000000000e+06,1.950146675100000060e+00,0.000000000000000000e+00
6.127200000000000000e+06,1.935483837100000049e+00,0.000000000000000000e+00
6.131088000000000000e+06,1.964809417699999949e+00,0.000000000000000000e+00
6.134964000000000000e+06,2.003910064599999874e+00,0.000000000000000000e+00
6.138820000000000000e+06,2.023460388100000173e+00,0.000000000000000000e+00
6.142692000000000000e+06,2.003910064599999874e+00,0.000000000000000000e+00
6.146548000000000000e+06,2.003910064599999874e+00,0.000000000000000000e+00
6.150412000000000000e+06,2.013685226399999806e+00,0.000000000000000000e+00
6.154280000000000000e+06,2.062561035099999884e+00,0.000000000000000000e+00
6.158148000000000000e+06,2.096774101199999851e+00,0.000000000000000000e+00
6.162020000000000000e+06,2.086998939499999928e+00,0.000000000000000000e+00
6.165892000000000000e+06,2.072336196799999808e+00,0.000000000000000000e+00
6.169772000000000000e+06,2.091886520300000107e+00,0.000000000000000000e+00
6.173636000000000000e+06,2.135874986600000192e+00,0.000000000000000000e+00
6.177516000000000000e+06,2.179863214400000082e+00,0.000000000000000000e+00
6.181396000000000000e+06,2.189638376200000014e+00,0.000000000000000000e+00
6.185276000000000000e+06,2.189638376200000014e+00,0.000000000000000000e+00
6.189156000000000000e+06,2.199413537899999938e+00,0.000000000000000000e+00
6.193036000000000000e+06,2.248289346600000016e+00,0.000000000000000000e+00
6.196924000000000000e+06,2.302052736199999838e+00,0.000000000000000000e+00
6.200804000000000000e+06,2.297165155400000103e+00,0.000000000000000000e+00
6.204692000000000000e+06,2.277614831899999803e+00,0.000000000000000000e+00
6.208572000000000000e+06,2.277614831899999803e+00,0.000000000000000000e+00
6.212452000000000000e+06,2.311827898000000214e+00,0.000000000000000000e+00
6.216324000000000000e+06,2.350928544899999917e+00,0.000000000000000000e+00
6.220196000000000000e+06,2.350928544899999917e+00,0.000000000000000000e+00
6.224076000000000000e+06,2.306940317100000026e+00,0.000000000000000000e+00
6.227948000000000000e+06,2.282502412699999983e+00,0.000000000000000000e+00
6.231828000000000000e+06,2.306940317100000026e+00,0.000000000000000000e+00
6.235700000000000000e+06,2.316715478799999950e+00,0.000000000000000000e+00
6.239580000000000000e+06,2.297165155400000103e+00,0.000000000000000000e+00
6.243460000000000000e+06,2.228739023200000169e+00,0.000000000000000000e+00
6.247324000000000000e+06,2.170088052700000159e+00,0.000000000000000000e+00
6.251196000000000000e+06,2.116324424700000151e+00,0.000000000000000000e+00
6.255084000000000000e+06,2.077223777699999996e+00,0.000000000000000000e+00
6.258964000000000000e+06,2.018572807299999994e+00,0.000000000000000000e+00
6.262832000000000000e+06,1.925708675299999895e+00,0.000000000000000000e+00
6.266700000000000000e+06,1.832844638799999926e+00,0.000000000000000000e+00
6.270580000000000000e+06,1.779081106100000031e+00,0.000000000000000000e+00
6.274456000000000000e+06,1.754643201799999996e+00,0.000000000000000000e+00
6.278328000000000000e+06,1.730205297399999953e+00,0.000000000000000000e+00
6.282196000000000000e+06,1.681329345700000033e+00,0.000000000000000000e+00
6.286084000000000000e+06,1.637341117799999912e+00,0.000000000000000000e+00
6.289972000000000000e+06,1.617790794300000057e+00,0.000000000000000000e+00
6.293856000000000000e+06,1.622678375200000023e+00,0.000000000000000000e+00
6.297740000000000000e+06,1.637341117799999912e+00,0.000000000000000000e+00
6.301620000000000000e+06,1.632453536899999946e+00,0.000000000000000000e+00
6.305504000000000000e+06,1.593352890000000022e+00,0.000000000000000000e+00
6.309364000000000000e+06,1.588465309100000056e+00,0.000000000000000000e+00
6.313248000000000000e+06,1.608015632599999911e+00,0.000000000000000000e+00
6.317116000000000000e+06,1.642228698700000100e+00,0.000000000000000000e+00
6.320996000000000000e+06,1.632453536899999946e+00,0.000000000000000000e+00
6.324888000000000000e+06,1.612903213500000099e+00,0.000000000000000000e+00
6.328772000000000000e+06,1.617790794300000057e+00,0.000000000000000000e+00
6.332652000000000000e+06,1.632453536899999946e+00,0.000000000000000000e+00
6.336532000000000000e+06,1.671554183900000101e+00,0.000000000000000000e+00
6.340404000000000000e+06,1.656891441299999990e+00,0.000000000000000000e+00
6.344292000000000000e+06,1.627565956099999989e+00,0.000000000000000000e+00
6.348184000000000000e+06,1.622678375200000023e+00,0.000000000000000000e+00
6.352068000000000000e+06,1.637341117799999912e+00,0.000000000000000000e+00
6.355948000000000000e+06,1.666666602999999913e+00,0.000000000000000000e+00
6.359832000000000000e+06,1.681329345700000033e+00,0.000000000000000000e+00
6.363720000000000000e+06,1.671554183900000101e+00,0.000000000000000000e+00
6.367608000000000000e+06,1.671554183900000101e+00,0.000000000000000000e+00
6.371492000000000000e+06,1.695992231299999986e+00,0.000000000000000000e+00
6.375364000000000000e+06,1.735092878299999919e+00,0.000000000000000000e+00
6.379248000000000000e+06,1.749755620900000030e+00,0.000000000000000000e+00
6.383128000000000000e+06,1.739980459200000107e+00,0.000000000000000000e+00
6.387008000000000000e+06,1.739980459200000107e+00,0.000000000000000000e+00
6.390876000000000000e+06,1.759530782599999954e+00,0.000000000000000000e+00
6.394748000000000000e+06,1.793743848799999929e+00,0.000000000000000000e+00
6.398640000000000000e+06,1.808406638999999982e+00,0.000000000000000000e+00
6.402504000000000000e+06,1.803519058200000025e+00,0.000000000000000000e+00
6.406364000000000000e+06,1.788856267899999963e+00,0.000000000000000000e+00
6.410252000000000000e+06,1.803519058200000025e+00,0.000000000000000000e+00
6.414116000000000000e+06,1.823069476999999994e+00,0.000000000000000000e+00
6.417992000000000000e+06,1.842619800500000071e+00,0.000000000000000000e+00
6.421864000000000000e+06,1.832844638799999926e+00,0.000000000000000000e+00
6.425744000000000000e+06,1.827957057899999960e+00,0.000000000000000000e+00
6.429616000000000000e+06,1.842619800500000071e+00,0.000000000000000000e+00
6.433480000000000000e+06,1.867057704899999893e+00,0.000000000000000000e+00
6.437344000000000000e+06,1.886608028399999970e+00,0.000000000000000000e+00
6.441212000000000000e+06,1.896383190099999894e+00,0.000000000000000000e+00
6.445092000000000000e+06,1.867057704899999893e+00,0.000000000000000000e+00
6.448956000000000000e+06,1.881720447500000004e+00,0.000000000000000000e+00
6.452836000000000000e+06,1.881720447500000004e+00,0.000000000000000000e+00
6.456716000000000000e+06,1.891495609199999928e+00,0.000000000000000000e+00
6.460600000000000000e+06,1.871945285700000072e+00,0.000000000000000000e+00
6.464472000000000000e+06,1.842619800500000071e+00,0.000000000000000000e+00
6.468332000000000000e+06,1.832844638799999926e+00,0.000000000000000000e+00
6.472224000000000000e+06,1.837732219600000105e+00,0.000000000000000000e+00
6.476112000000000000e+06,1.862170123999999927e+00,0.000000000000000000e+00
6.479984000000000000e+06,1.837732219600000105e+00,0.000000000000000000e+00
6.483864000000000000e+06,1.837732219600000105e+00,0.000000000000000000e+00
6.487748000000000000e+06,1.813294315300000070e+00,0.000000000000000000e+00
6.491640000000000000e+06,1.827957057899999960e+00,0.000000000000000000e+00
6.495512000000000000e+06,1.842619800500000071e+00,0.000000000000000000e+00
6.499380000000000000e+06,1.842619800500000071e+00,0.000000000000000000e+00
6.503244000000000000e+06,1.818181896200000036e+00,0.000000000000000000e+00
6.507136000000000000e+06,1.803519058200000025e+00,0.000000000000000000e+00
6.511008000000000000e+06,1.808406638999999982e+00,0.000000000000000000e+00
6.514872000000000000e+06,1.827957057899999960e+00,0.000000000000000000e+00
6.518740000000000000e+06,1.832844638799999926e+00,0.000000000000000000e+00
6.522620000000000000e+06,1.813294315300000070e+00,0.000000000000000000e+00
6.526500000000000000e+06,1.798631429600000109e+00,0.000000000000000000e+00
6.530384000000000000e+06,1.808406638999999982e+00,0.000000000000000000e+00
6.534248000000000000e+06,1.842619800500000071e+00,0.000000000000000000e+00
6.538108000000000000e+06,1.852394962300000003e+00,0.000000000000000000e+00
6.542000000000000000e+06,1.827957057899999960e+00,0.000000000000000000e+00
6.545876000000000000e+06,1.798631429600000109e+00,0.000000000000000000e+00
6.549756000000000000e+06,1.803519058200000025e+00,0.000000000000000000e+00
6.553636000000000000e+06,1.832844638799999926e+00,0.000000000000000000e+00
6.557504000000000000e+06,1.857282543099999961e+00,0.000000000000000000e+00
6.561384000000000000e+06,1.837732219600000105e+00,0.000000000000000000e+00
6.565260000000000000e+06,1.798631429600000109e+00,0.000000000000000000e+00
6.569140000000000000e+06,1.793743848799999929e+00,0.000000000000000000e+00
6.573016000000000000e+06,1.827957057899999960e+00,0.000000000000000000e+00
6.576884000000000000e+06,1.876832866600000038e+00,0.000000000000000000e+00
6.580768000000000000e+06,1.871945285700000072e+00,0.000000000000000000e+00
6.584656000000000000e+06,1.837732219600000105e+00,0.000000000000000000e+00
6.588524000000000000e+06,1.832844638799999926e+00,0.000000000000000000e+00
6.592400000000000000e+06,1.862170123999999927e+00,0.000000000000000000e+00
6.596280000000000000e+06,1.901270771000000082e+00,0.000000000000000000e+00
6.600148000000000000e+06,1.915933513599999971e+00,0.000000000000000000e+00
6.604040000000000000e+06,1.896383190099999894e+00,0.000000000000000000e+00
6.607916000000000000e+06,1.886608028399999970e+00,0.000000000000000000e+00
6.611780000000000000e+06,1.911045932700000005e+00,0.000000000000000000e+00
6.615664000000000000e+06,1.959921836799999983e+00,0.000000000000000000e+00
6.619544000000000000e+06,1.994134902899999950e+00,0.000000000000000000e+00
6.623416000000000000e+06,1.969696998499999907e+00,0.000000000000000000e+00
6.627288000000000000e+06,1.945259094200000094e+00,0.000000000000000000e+00
6.631168000000000000e+06,1.935483837100000049e+00,0.000000000000000000e+00
6.635056000000000000e+06,1.935483837100000049e+00,0.000000000000000000e+00
6.638944000000000000e+06,1.930596256200000083e+00,0.000000000000000000e+00
6.642824000000000000e+06,1.886608028399999970e+00,0.000000000000000000e+00
6.646688000000000000e+06,1.847507381400000037e+00,0.000000000000000000e+00
6.650560000000000000e+06,1.808406638999999982e+00,0.000000000000000000e+00
6.654428000000000000e+06,1.798631429600000109e+00,0.000000000000000000e+00
6.658312000000000000e+06,1.788856267899999963e+00,0.000000000000000000e+00
6.662188000000000000e+06,1.769305944400000108e+00,0.000000000000000000e+00
6.666056000000000000e+06,1.725317716499999987e+00,0.000000000000000000e+00
6.669940000000000000e+06,1.705767393099999918e+00,0.000000000000000000e+00
6.673824000000000000e+06,1.700879812199999952e+00,0.000000000000000000e+00
6.677696000000000000e+06,1.715542554800000064e+00,0.000000000000000000e+00
6.681568000000000000e+06,1.710654973900000098e+00,0.000000000000000000e+00
6.685444000000000000e+06,1.691104650400000020e+00,0.000000000000000000e+00
6.689312000000000000e+06,1.671554183900000101e+00,0.000000000000000000e+00
6.693196000000000000e+06,1.676441764800000067e+00,0.000000000000000000e+00
6.697084000000000000e+06,1.695992231299999986e+00,0.000000000000000000e+00
6.700964000000000000e+06,1.695992231299999986e+00,0.000000000000000000e+00
6.704844000000000000e+06,1.681329345700000033e+00,0.000000000000000000e+00
6.708732000000000000e+06,1.666666602999999913e+00,0.000000000000000000e+00
6.712608000000000000e+06,1.671554183900000101e+00,0.000000000000000000e+00
6.716476000000000000e+06,1.695992231299999986e+00,0.000000000000000000e+00
6.720348000000000000e+06,1.695992231299999986e+00,0.000000000000000000e+00
6.724240000000000000e+06,1.700879812199999952e+00,0.000000000000000000e+00
6.728112000000000000e+06,1.739980459200000107e+00,0.000000000000000000e+00
6.731984000000000000e+06,1.857282543099999961e+00,0.000000000000000000e+00
6.735860000000000000e+06,2.067448616000000072e+00,0.000000000000000000e+00
6.739732000000000000e+06,2.370478868400000216e+00,0.000000000000000000e+00
6.743612000000000000e+06,2.707722425400000077e+00,0.000000000000000000e+00
6.747484000000000000e+06,3.020527839600000153e+00,0.000000000000000000e+00
6.751340000000000000e+06,3.255131959899999927e+00,0.000000000000000000e+00
6.755220000000000000e+06,3.313782930299999929e+00,0.000000000000000000e+00
6.759100000000000000e+06,3.128054857199999983e+00,0.000000000000000000e+00
6.762980000000000000e+06,2.761485814999999899e+00,0.000000000000000000e+00
6.766860000000000000e+06,2.262952089300000136e+00,0.000000000000000000e+00
6.770736000000000000e+06,1.759530782599999954e+00,0.000000000000000000e+00
6.774604000000000000e+06,1.392961864399999916e+00,0.000000000000000000e+00
6.778480000000000000e+06,1.158357739399999975e+00,0.000000000000000000e+00
6.782356000000000000e+06,1.085044021599999908e+00,0.000000000000000000e+00
6.786220000000000000e+06,1.085044021599999908e+00,1.000000000000000000e+00
6.790080000000000000e+06,1.158357739399999975e+00,0.000000000000000000e+00
6.793964000000000000e+06,1.265884637799999934e+00,0.000000000000000000e+00
6.797844000000000000e+06,1.388074283499999950e+00,0.000000000000000000e+00
6.801728000000000000e+06,1.495601177199999965e+00,0.000000000000000000e+00
6.805596000000000000e+06,1.564027404700000012e+00,0.000000000000000000e+00
6.809468000000000000e+06,1.588465309100000056e+00,0.000000000000000000e+00
6.813340000000000000e+06,1.632453536899999946e+00,0.000000000000000000e+00
6.817228000000000000e+06,1.661779022199999956e+00,0.000000000000000000e+00
6.821108000000000000e+06,1.695992231299999986e+00,0.000000000000000000e+00
6.824996000000000000e+06,1.695992231299999986e+00,0.000000000000000000e+00
6.828868000000000000e+06,1.691104650400000020e+00,0.000000000000000000e+00
6.832740000000000000e+06,1.705767393099999918e+00,0.000000000000000000e+00
6.836624000000000000e+06,1.730205297399999953e+00,0.000000000000000000e+00
6.840484000000000000e+06,1.754643201799999996e+00,0.000000000000000000e+00
6.844348000000000000e+06,1.764418363499999920e+00,0.000000000000000000e+00
6.848236000000000000e+06,1.759530782599999954e+00,0.000000000000000000e+00
6.852108000000000000e+06,1.769305944400000108e+00,0.000000000000000000e+00
6.855980000000000000e+06,1.803519058200000025e+00,0.000000000000000000e+00
6.859856000000000000e+06,1.827957057899999960e+00,0.000000000000000000e+00
6.863728000000000000e+06,1.847507381400000037e+00,0.000000000000000000e+00
6.867608000000000000e+06,1.832844638799999926e+00,0.000000000000000000e+00
6.871480000000000000e+06,1.842619800500000071e+00,0.000000000000000000e+00
6.875352000000000000e+06,1.867057704899999893e+00,0.000000000000000000e+00
6.879212000000000000e+06,1.896383190099999894e+00,0.000000000000000000e+00
6.883092000000000000e+06,1.911045932700000005e+00,0.000000000000000000e+00
6.886976000000000000e+06,1.915933513599999971e+00,0.000000000000000000e+00
6.890860000000000000e+06,1.901270771000000082e+00,0.000000000000000000e+00
6.894736000000000000e+06,1.915933513599999971e+00,0.000000000000000000e+00
6.898616000000000000e+06,1.940371513299999906e+00,0.000000000000000000e+00
6.902488000000000000e+06,1.964809417699999949e+00,0.000000000000000000e+00
6.906360000000000000e+06,1.964809417699999949e+00,0.000000000000000000e+00
6.910240000000000000e+06,1.969696998499999907e+00,0.000000000000000000e+00
6.914112000000000000e+06,1.984359741200000027e+00,0.000000000000000000e+00
6.917988000000000000e+06,2.023460388100000173e+00,0.000000000000000000e+00
6.921860000000000000e+06,2.047898292500000217e+00,0.000000000000000000e+00
6.925732000000000000e+06,2.057673454200000140e+00,0.000000000000000000e+00
6.929612000000000000e+06,2.072336196799999808e+00,0.000000000000000000e+00
6.933476000000000000e+06,2.082111358600000184e+00,0.000000000000000000e+00
6.937348000000000000e+06,2.126099824899999824e+00,0.000000000000000000e+00
6.941228000000000000e+06,2.155425310100000047e+00,0.000000000000000000e+00
6.945108000000000000e+06,2.189638376200000014e+00,0.000000000000000000e+00
6.948996000000000000e+06,2.184750795299999826e+00,0.000000000000000000e+00
6.952868000000000000e+06,2.209188699699999869e+00,0.000000000000000000e+00
6.956740000000000000e+06,2.243401765799999836e+00,0.000000000000000000e+00
6.960620000000000000e+06,2.277614831899999803e+00,0.000000000000000000e+00
6.964500000000000000e+06,2.287389993600000171e+00,0.000000000000000000e+00
6.968368000000000000e+06,2.287389993600000171e+00,0.000000000000000000e+00
6.972236000000000000e+06,2.292277574499999915e+00,0.000000000000000000e+00
6.976116000000000000e+06,2.316715478799999950e+00,0.000000000000000000e+00
6.979996000000000000e+06,2.346040964100000181e+00,0.000000000000000000e+00
6.983868000000000000e+06,2.336265802299999805e+00,0.000000000000000000e+00
6.987740000000000000e+06,2.311827898000000214e+00,0.000000000000000000e+00
6.991620000000000000e+06,2.302052736199999838e+00,0.000000000000000000e+00
6.995484000000000000e+06,2.306940317100000026e+00,0.000000000000000000e+00
6.999348000000000000e+06,2.316715478799999950e+00,0.000000000000000000e+00
7.003228000000000000e+06,2.287389993600000171e+00,0.000000000000000000e+00
7.007100000000000000e+06,2.238514184900000092e+00,0.000000000000000000e+00
7.010980000000000000e+06,2.174975633599999902e+00,0.000000000000000000e+00
7.014868000000000000e+06,2.130987405700000004e+00,0.000000000000000000e+00
7.018740000000000000e+06,2.091886520300000107e+00,0.000000000000000000e+00
7.022616000000000000e+06,2.023460388100000173e+00,0.000000000000000000e+00
7.026480000000000000e+06,1.955034255900000018e+00,0.000000000000000000e+00
7.030352000000000000e+06,1.862170123999999927e+00,0.000000000000000000e+00
7.034228000000000000e+06,1.798631429600000109e+00,0.000000000000000000e+00
7.038116000000000000e+06,1.754643201799999996e+00,0.000000000000000000e+00
7.041996000000000000e+06,1.705767393099999918e+00,0.000000000000000000e+00
7.045876000000000000e+06,1.652003860400000024e+00,0.000000000000000000e+00
7.049740000000000000e+06,1.598240470799999979e+00,0.000000000000000000e+00
7.053612000000000000e+06,1.573802566499999944e+00,0.000000000000000000e+00
7.057476000000000000e+06,1.568914985599999978e+00,0.000000000000000000e+00
7.061340000000000000e+06,1.559139728499999933e+00,0.000000000000000000e+00
7.065220000000000000e+06,1.544476985900000043e+00,0.000000000000000000e+00
7.069100000000000000e+06,1.520039081500000000e+00,0.000000000000000000e+00
7.072964000000000000e+06,1.520039081500000000e+00,0.000000000000000000e+00
7.076828000000000000e+06,1.534701824099999889e+00,0.000000000000000000e+00
7.080708000000000000e+06,1.559139728499999933e+00,0.000000000000000000e+00
7.084588000000000000e+06,1.559139728499999933e+00,0.000000000000000000e+00
7.088476000000000000e+06,1.554252147599999967e+00,0.000000000000000000e+00
7.092348000000000000e+06,1.568914985599999978e+00,0.000000000000000000e+00
7.096228000000000000e+06,1.588465309100000056e+00,0.000000000000000000e+00
7.100108000000000000e+06,1.617790794300000057e+00,0.000000000000000000e+00
7.103992000000000000e+06,1.622678375200000023e+00,0.000000000000000000e+00
7.107876000000000000e+06,1.617790794300000057e+00,0.000000000000000000e+00
7.111748000000000000e+06,1.617790794300000057e+00,0.000000000000000000e+00
7.115620000000000000e+06,1.642228698700000100e+00,0.000000000000000000e+00
7.119500000000000000e+06,1.676441764800000067e+00,0.000000000000000000e+00
7.123380000000000000e+06,1.676441764800000067e+00,0.000000000000000000e+00
7.127264000000000000e+06,1.671554183900000101e+00,0.000000000000000000e+00
7.131148000000000000e+06,1.666666602999999913e+00,0.000000000000000000e+00
7.135024000000000000e+06,1.686216926499999991e+00,0.000000000000000000e+00
7.138912000000000000e+06,1.710654973900000098e+00,0.000000000000000000e+00
7.142792000000000000e+06,1.715542554800000064e+00,0.000000000000000000e+00
7.146680000000000000e+06,1.710654973900000098e+00,0.000000000000000000e+00
7.150552000000000000e+06,1.700879812199999952e+00,0.000000000000000000e+00
7.154416000000000000e+06,1.710654973900000098e+00,0.000000000000000000e+00
7.158296000000000000e+06,1.730205297399999953e+00,0.000000000000000000e+00
7.162168000000000000e+06,1.739980459200000107e+00,0.000000000000000000e+00
7.166040000000000000e+06,1.730205297399999953e+00,0.000000000000000000e+00
7.169912000000000000e+06,1.725317716499999987e+00,0.000000000000000000e+00
7.173796000000000000e+06,1.735092878299999919e+00,0.000000000000000000e+00
7.177676000000000000e+06,1.764418363499999920e+00,0.000000000000000000e+00
7.181556000000000000e+06,1.793743848799999929e+00,0.000000000000000000e+00
7.185444000000000000e+06,1.774193525300000074e+00,0.000000000000000000e+00
7.189316000000000000e+06,1.759530782599999954e+00,0.000000000000000000e+00
7.193196000000000000e+06,1.754643201799999996e+00,0.000000000000000000e+00
7.197076000000000000e+06,1.769305944400000108e+00,0.000000000000000000e+00
7.200956000000000000e+06,1.788856267899999963e+00,0.000000000000000000e+00
7.204836000000000000e+06,1.774193525300000074e+00,0.000000000000000000e+00
7.208724000000000000e+06,1.759530782599999954e+00,0.000000000000000000e+00
7.212608000000000000e+06,1.749755620900000030e+00,0.000000000000000000e+00
7.216480000000000000e+06,1.764418363499999920e+00,0.000000000000000000e+00
7.220356000000000000e+06,1.783968686999999997e+00,0.000000000000000000e+00
7.224224000000000000e+06,1.779081106100000031e+00,0.000000000000000000e+00
7.228100000000000000e+06,1.764418363499999920e+00,0.000000000000000000e+00
7.231988000000000000e+06,1.764418363499999920e+00,0.000000000000000000e+00
7.235876000000000000e+06,1.783968686999999997e+00,0.000000000000000000e+00
7.239740000000000000e+06,1.798631429600000109e+00,0.000000000000000000e+00
7.243620000000000000e+06,1.798631429600000109e+00,0.000000000000000000e+00
7.247492000000000000e+06,1.779081106100000031e+00,0.000000000000000000e+00
7.251356000000000000e+06,1.783968686999999997e+00,0.000000000000000000e+00
7.255232000000000000e+06,1.788856267899999963e+00,0.000000000000000000e+00
7.259108000000000000e+06,1.813294315300000070e+00,0.000000000000000000e+00
7.263000000000000000e+06,1.808406638999999982e+00,0.000000000000000000e+00
7.266860000000000000e+06,1.793743848799999929e+00,0.000000000000000000e+00
7.270748000000000000e+06,1.774193525300000074e+00,0.000000000000000000e+00
7.274628000000000000e+06,1.783968686999999997e+00,0.000000000000000000e+00
7.278496000000000000e+06,1.803519058200000025e+00,0.000000000000000000e+00
7.282364000000000000e+06,1.813294315300000070e+00,0.000000000000000000e+00
7.286252000000000000e+06,1.813294315300000070e+00,0.000000000000000000e+00
7.290140000000000000e+06,1.783968686999999997e+00,0.000000000000000000e+00
7.294012000000000000e+06,1.793743848799999929e+00,0.000000000000000000e+00
7.297896000000000000e+06,1.808406638999999982e+00,0.000000000000000000e+00
7.301764000000000000e+06,1.818181896200000036e+00,0.000000000000000000e+00
7.305656000000000000e+06,1.808406638999999982e+00,0.000000000000000000e+00
7.309508000000000000e+06,1.798631429600000109e+00,0.000000000000000000e+00
7.313380000000000000e+06,1.798631429600000109e+00,0.000000000000000000e+00
7.317264000000000000e+06,1.827957057899999960e+00,0.000000000000000000e+00
7.321144000000000000e+06,1.842619800500000071e+00,0.000000000000000000e+00
7.325024000000000000e+06,1.837732219600000105e+00,0.000000000000000000e+00
7.328912000000000000e+06,1.827957057899999960e+00,0.000000000000000000e+00
7.332784000000000000e+06,1.827957057899999960e+00,0.000000000000000000e+00
7.336664000000000000e+06,1.852394962300000003e+00,0.000000000000000000e+00
7.340540000000000000e+06,1.876832866600000038e+00,0.000000000000000000e+00
7.344412000000000000e+06,1.881720447500000004e+00,0.000000000000000000e+00
7.348284000000000000e+06,1.876832866600000038e+00,0.000000000000000000e+00
7.352156000000000000e+06,1.881720447500000004e+00,0.000000000000000000e+00
7.356040000000000000e+06,1.906158351800000039e+00,0.000000000000000000e+00
7.359920000000000000e+06,1.930596256200000083e+00,0.000000000000000000e+00
7.363800000000000000e+06,1.935483837100000049e+00,0.000000000000000000e+00
7.366660000000000000e+06,1.915933513599999971e+00,0.000000000000000000e+00
7.371560000000000000e+06,1.915933513599999971e+00,0.000000000000000000e+00
7.375444000000000000e+06,1.935483837100000049e+00,0.000000000000000000e+00
7.379328000000000000e+06,1.964809417699999949e+00,0.000000000000000000e+00
7.383208000000000000e+06,1.974584579400000095e+00,0.000000000000000000e+00
7.387080000000000000e+06,1.959921836799999983e+00,0.000000000000000000e+00
7.390968000000000000e+06,1.945259094200000094e+00,0.000000000000000000e+00
7.394848000000000000e+06,1.950146675100000060e+00,0.000000000000000000e+00
7.398728000000000000e+06,1.959921836799999983e+00,0.000000000000000000e+00
7.402600000000000000e+06,1.945259094200000094e+00,0.000000000000000000e+00
7.406468000000000000e+06,1.915933513599999971e+00,0.000000000000000000e+00
7.410348000000000000e+06,1.881720447500000004e+00,0.000000000000000000e+00
7.414232000000000000e+06,1.871945285700000072e+00,0.000000000000000000e+00
7.418112000000000000e+06,1.871945285700000072e+00,0.000000000000000000e+00
7.421996000000000000e+06,1.852394962300000003e+00,0.000000000000000000e+00
7.425876000000000000e+06,1.818181896200000036e+00,0.000000000000000000e+00
7.429764000000000000e+06,1.788856267899999963e+00,0.000000000000000000e+00
7.433644000000000000e+06,1.779081106100000031e+00,0.000000000000000000e+00
7.437508000000000000e+06,1.798631429600000109e+00,0.000000000000000000e+00
7.441380000000000000e+06,1.793743848799999929e+00,0.000000000000000000e+00
7.445260000000000000e+06,1.788856267899999963e+00,0.000000000000000000e+00
7.449140000000000000e+06,1.764418363499999920e+00,0.000000000000000000e+00
7.453028000000000000e+06,1.769305944400000108e+00,0.000000000000000000e+00
7.456908000000000000e+06,1.788856267899999963e+00,0.000000000000000000e+00
7.460792000000000000e+06,1.808406638999999982e+00,0.000000000000000000e+00
7.464652000000000000e+06,1.798631429600000109e+00,0.000000000000000000e+00
7.468524000000000000e+06,1.783968686999999997e+00,0.000000000000000000e+00
7.472392000000000000e+06,1.779081106100000031e+00,0.000000000000000000e+00
7.476268000000000000e+06,1.783968686999999997e+00,0.000000000000000000e+00
7.480132000000000000e+06,1.793743848799999929e+00,0.000000000000000000e+00
7.484020000000000000e+06,1.793743848799999929e+00,0.000000000000000000e+00
7.487908000000000000e+06,1.832844638799999926e+00,0.000000000000000000e+00
7.491800000000000000e+06,1.940371513299999906e+00,0.000000000000000000e+00
7.495676000000000000e+06,2.155425310100000047e+00,0.000000000000000000e+00
7.499560000000000000e+06,2.468230724300000123e+00,0.000000000000000000e+00
7.503428000000000000e+06,2.800586509700000004e+00,0.000000000000000000e+00
7.507292000000000000e+06,3.132942438100000171e+00,0.000000000000000000e+00
7.511172000000000000e+06,3.411534786199999836e+00,0.000000000000000000e+00
7.515052000000000000e+06,3.519061565299999916e+00,0.000000000000000000e+00
7.518932000000000000e+06,3.357771158199999828e+00,0.000000000000000000e+00
7.522824000000000000e+06,2.976539611799999818e+00,0.000000000000000000e+00
7.526708000000000000e+06,2.443792819900000080e+00,0.000000000000000000e+00
7.530576000000000000e+06,1.906158351800000039e+00,0.000000000000000000e+00
7.534436000000000000e+06,1.515151500700000042e+00,0.000000000000000000e+00
7.538316000000000000e+06,1.295210122999999935e+00,0.000000000000000000e+00
7.542196000000000000e+06,1.231671571699999967e+00,0.000000000000000000e+00
7.546084000000000000e+06,1.246334314300000079e+00,1.000000000000000000e+00
7.549972000000000000e+06,1.329423308299999995e+00,0.000000000000000000e+00
7.553848000000000000e+06,1.436950111300000055e+00,0.000000000000000000e+00
7.557724000000000000e+06,1.559139728499999933e+00,0.000000000000000000e+00
7.561604000000000000e+06,1.642228698700000100e+00,0.000000000000000000e+00
7.565484000000000000e+06,1.686216926499999991e+00,0.000000000000000000e+00
7.569360000000000000e+06,1.710654973900000098e+00,0.000000000000000000e+00
7.573236000000000000e+06,1.720430135700000029e+00,0.000000000000000000e+00
7.577116000000000000e+06,1.754643201799999996e+00,0.000000000000000000e+00
7.580996000000000000e+06,1.774193525300000074e+00,0.000000000000000000e+00
7.584876000000000000e+06,1.774193525300000074e+00,0.000000000000000000e+00
7.588756000000000000e+06,1.769305944400000108e+00,0.000000000000000000e+00
7.592636000000000000e+06,1.774193525300000074e+00,0.000000000000000000e+00
7.596520000000000000e+06,1.808406638999999982e+00,0.000000000000000000e+00
7.600384000000000000e+06,1.827957057899999960e+00,0.000000000000000000e+00
7.604260000000000000e+06,1.832844638799999926e+00,0.000000000000000000e+00
7.608132000000000000e+06,1.823069476999999994e+00,0.000000000000000000e+00
7.612004000000000000e+06,1.818181896200000036e+00,0.000000000000000000e+00
7.615896000000000000e+06,1.847507381400000037e+00,0.000000000000000000e+00
7.619776000000000000e+06,1.871945285700000072e+00,0.000000000000000000e+00
7.623652000000000000e+06,1.876832866600000038e+00,0.000000000000000000e+00
7.627528000000000000e+06,1.867057704899999893e+00,0.000000000000000000e+00
7.631400000000000000e+06,1.857282543099999961e+00,0.000000000000000000e+00
7.635284000000000000e+06,1.876832866600000038e+00,0.000000000000000000e+00
7.639168000000000000e+06,1.906158351800000039e+00,0.000000000000000000e+00
7.643036000000000000e+06,1.911045932700000005e+00,0.000000000000000000e+00
7.646920000000000000e+06,1.906158351800000039e+00,0.000000000000000000e+00
7.650796000000000000e+06,1.901270771000000082e+00,0.000000000000000000e+00
7.654672000000000000e+06,1.915933513599999971e+00,0.000000000000000000e+00
7.658548000000000000e+06,1.945259094200000094e+00,0.000000000000000000e+00
7.662416000000000000e+06,1.964809417699999949e+00,0.000000000000000000e+00
7.666296000000000000e+06,1.964809417699999949e+00,0.000000000000000000e+00
7.670176000000000000e+06,1.959921836799999983e+00,0.000000000000000000e+00
7.674056000000000000e+06,1.974584579400000095e+00,0.000000000000000000e+00
7.677932000000000000e+06,2.003910064599999874e+00,0.000000000000000000e+00
7.681796000000000000e+06,2.023460388100000173e+00,0.000000000000000000e+00
7.685668000000000000e+06,2.023460388100000173e+00,0.000000000000000000e+00
7.689532000000000000e+06,2.018572807299999994e+00,0.000000000000000000e+00
7.693396000000000000e+06,2.038123130699999841e+00,0.000000000000000000e+00
7.697268000000000000e+06,2.077223777699999996e+00,0.000000000000000000e+00
7.701148000000000000e+06,2.111436843799999963e+00,0.000000000000000000e+00
7.705028000000000000e+06,2.116324424700000151e+00,0.000000000000000000e+00
7.708916000000000000e+06,2.121212005599999895e+00,0.000000000000000000e+00
7.712792000000000000e+06,2.140762567499999935e+00,0.000000000000000000e+00
7.716668000000000000e+06,2.165200471799999971e+00,0.000000000000000000e+00
7.720540000000000000e+06,2.199413537899999938e+00,0.000000000000000000e+00
7.724420000000000000e+06,2.209188699699999869e+00,0.000000000000000000e+00
7.728292000000000000e+06,2.214076280500000049e+00,0.000000000000000000e+00
7.732156000000000000e+06,2.209188699699999869e+00,0.000000000000000000e+00
7.736028000000000000e+06,2.243401765799999836e+00,0.000000000000000000e+00
7.739908000000000000e+06,2.258064508399999948e+00,0.000000000000000000e+00
7.743780000000000000e+06,2.267839670099999871e+00,0.000000000000000000e+00
7.747652000000000000e+06,2.228739023200000169e+00,0.000000000000000000e+00
7.751516000000000000e+06,2.218963861399999793e+00,0.000000000000000000e+00
7.755396000000000000e+06,2.209188699699999869e+00,0.000000000000000000e+00
7.759276000000000000e+06,2.214076280500000049e+00,0.000000000000000000e+00
7.763148000000000000e+06,2.184750795299999826e+00,0.000000000000000000e+00
7.767020000000000000e+06,2.140762567499999935e+00,0.000000000000000000e+00
7.770900000000000000e+06,2.082111358600000184e+00,0.000000000000000000e+00
7.774780000000000000e+06,2.038123130699999841e+00,0.000000000000000000e+00
7.778664000000000000e+06,1.994134902899999950e+00,0.000000000000000000e+00
7.782536000000000000e+06,1.940371513299999906e+00,0.000000000000000000e+00
7.786408000000000000e+06,1.852394962300000003e+00,0.000000000000000000e+00
7.790292000000000000e+06,1.774193525300000074e+00,0.000000000000000000e+00
7.794184000000000000e+06,1.710654973900000098e+00,0.000000000000000000e+00
7.798064000000000000e+06,1.671554183900000101e+00,0.000000000000000000e+00
7.801940000000000000e+06,1.632453536899999946e+00,0.000000000000000000e+00
7.805820000000000000e+06,1.578690147299999902e+00,0.000000000000000000e+00
7.809700000000000000e+06,1.524926662399999966e+00,0.000000000000000000e+00
7.813576000000000000e+06,1.495601177199999965e+00,0.000000000000000000e+00
7.817452000000000000e+06,1.490713596299999999e+00,0.000000000000000000e+00
7.821324000000000000e+06,1.490713596299999999e+00,0.000000000000000000e+00
7.825200000000000000e+06,1.485826015400000033e+00,0.000000000000000000e+00
7.829080000000000000e+06,1.485826015400000033e+00,0.000000000000000000e+00
7.832960000000000000e+06,1.490713596299999999e+00,0.000000000000000000e+00
7.836844000000000000e+06,1.524926662399999966e+00,0.000000000000000000e+00
7.840724000000000000e+06,1.564027404700000012e+00,0.000000000000000000e+00
7.844588000000000000e+06,1.588465309100000056e+00,0.000000000000000000e+00
7.848468000000000000e+06,1.598240470799999979e+00,0.000000000000000000e+00
7.852332000000000000e+06,1.632453536899999946e+00,0.000000000000000000e+00
7.856212000000000000e+06,1.695992231299999986e+00,0.000000000000000000e+00
7.860092000000000000e+06,1.783968686999999997e+00,0.000000000000000000e+00
7.863964000000000000e+06,1.852394962300000003e+00,0.000000000000000000e+00
7.867856000000000000e+06,1.896383190099999894e+00,0.000000000000000000e+00
7.871736000000000000e+06,1.930596256200000083e+00,0.000000000000000000e+00
7.875620000000000000e+06,1.979472160300000061e+00,0.000000000000000000e+00
7.879492000000000000e+06,2.033235549900000105e+00,0.000000000000000000e+00
7.883364000000000000e+06,2.062561035099999884e+00,0.000000000000000000e+00
7.887244000000000000e+06,2.052785873399999961e+00,0.000000000000000000e+00
7.891116000000000000e+06,2.033235549900000105e+00,0.000000000000000000e+00
7.894988000000000000e+06,2.033235549900000105e+00,0.000000000000000000e+00
7.898868000000000000e+06,2.072336196799999808e+00,0.000000000000000000e+00
7.902748000000000000e+06,2.077223777699999996e+00,0.000000000000000000e+00
7.906628000000000000e+06,2.067448616000000072e+00,0.000000000000000000e+00
7.910500000000000000e+06,2.057673454200000140e+00,0.000000000000000000e+00
7.914364000000000000e+06,2.077223777699999996e+00,0.000000000000000000e+00
7.918244000000000000e+06,2.106549262999999783e+00,0.000000000000000000e+00
7.922124000000000000e+06,2.101661682100000039e+00,0.000000000000000000e+00
7.926012000000000000e+06,2.062561035099999884e+00,0.000000000000000000e+00
7.929892000000000000e+06,2.038123130699999841e+00,0.000000000000000000e+00
7.933764000000000000e+06,2.028347968999999917e+00,0.000000000000000000e+00
7.937636000000000000e+06,2.033235549900000105e+00,0.000000000000000000e+00
7.941508000000000000e+06,2.013685226399999806e+00,0.000000000000000000e+00
7.945384000000000000e+06,1.974584579400000095e+00,0.000000000000000000e+00
7.949256000000000000e+06,1.950146675100000060e+00,0.000000000000000000e+00
7.953144000000000000e+06,1.950146675100000060e+00,0.000000000000000000e+00
7.957032000000000000e+06,1.959921836799999983e+00,0.000000000000000000e+00
7.960912000000000000e+06,1.950146675100000060e+00,0.000000000000000000e+00
7.964800000000000000e+06,1.925708675299999895e+00,0.000000000000000000e+00
7.968668000000000000e+06,1.911045932700000005e+00,0.000000000000000000e+00
7.972544000000000000e+06,1.906158351800000039e+00,0.000000000000000000e+00
7.976412000000000000e+06,1.911045932700000005e+00,0.000000000000000000e+00
7.980292000000000000e+06,1.911045932700000005e+00,0.000000000000000000e+00
7.984172000000000000e+06,1.876832866600000038e+00,0.000000000000000000e+00
7.988048000000000000e+06,1.857282543099999961e+00,0.000000000000000000e+00
7.991936000000000000e+06,1.867057704899999893e+00,0.000000000000000000e+00
7.995816000000000000e+06,1.886608028399999970e+00,0.000000000000000000e+00
7.999684000000000000e+06,1.891495609199999928e+00,0.000000000000000000e+00
8.003552000000000000e+06,1.852394962300000003e+00,0.000000000000000000e+00
8.007432000000000000e+06,1.823069476999999994e+00,0.000000000000000000e+00
8.011304000000000000e+06,1.827957057899999960e+00,0.000000000000000000e+00
8.015180000000000000e+06,1.852394962300000003e+00,0.000000000000000000e+00
8.019064000000000000e+06,1.862170123999999927e+00,0.000000000000000000e+00
8.022936000000000000e+06,1.837732219600000105e+00,0.000000000000000000e+00
8.026824000000000000e+06,1.823069476999999994e+00,0.000000000000000000e+00
8.030696000000000000e+06,1.808406638999999982e+00,0.000000000000000000e+00
8.034552000000000000e+06,1.823069476999999994e+00,0.000000000000000000e+00
8.038412000000000000e+06,1.847507381400000037e+00,0.000000000000000000e+00
8.042288000000000000e+06,1.827957057899999960e+00,0.000000000000000000e+00
8.046156000000000000e+06,1.813294315300000070e+00,0.000000000000000000e+00
8.050044000000000000e+06,1.803519058200000025e+00,0.000000000000000000e+00
8.053924000000000000e+06,1.813294315300000070e+00,0.000000000000000000e+00
8.057804000000000000e+06,1.818181896200000036e+00,0.000000000000000000e+00
8.061696000000000000e+06,1.808406638999999982e+00,0.000000000000000000e+00
8.065548000000000000e+06,1.788856267899999963e+00,0.000000000000000000e+00
8.069420000000000000e+06,1.779081106100000031e+00,0.000000000000000000e+00
8.073292000000000000e+06,1.788856267899999963e+00,0.000000000000000000e+00
8.077176000000000000e+06,1.808406638999999982e+00,0.000000000000000000e+00
8.081044000000000000e+06,1.818181896200000036e+00,0.000000000000000000e+00
8.084932000000000000e+06,1.793743848799999929e+00,0.000000000000000000e+00
8.088812000000000000e+06,1.793743848799999929e+00,0.000000000000000000e+00
8.092700000000000000e+06,1.808406638999999982e+00,0.000000000000000000e+00
8.096552000000000000e+06,1.837732219600000105e+00,0.000000000000000000e+00
8.100432000000000000e+06,1.842619800500000071e+00,0.000000000000000000e+00
8.104304000000000000e+06,1.842619800500000071e+00,0.000000000000000000e+00
8.108176000000000000e+06,1.847507381400000037e+00,0.000000000000000000e+00
8.112048000000000000e+06,1.867057704899999893e+00,0.000000000000000000e+00
8.115920000000000000e+06,1.886608028399999970e+00,0.000000000000000000e+00
8.119788000000000000e+06,1.896383190099999894e+00,0.000000000000000000e+00
8.123672000000000000e+06,1.886608028399999970e+00,0.000000000000000000e+00
8.127532000000000000e+06,1.876832866600000038e+00,0.000000000000000000e+00
8.131400000000000000e+06,1.886608028399999970e+00,0.000000000000000000e+00
8.135272000000000000e+06,1.906158351800000039e+00,0.000000000000000000e+00
8.139152000000000000e+06,1.896383190099999894e+00,0.000000000000000000e+00
8.143032000000000000e+06,1.867057704899999893e+00,0.000000000000000000e+00
8.146896000000000000e+06,1.827957057899999960e+00,0.000000000000000000e+00
8.150772000000000000e+06,1.803519058200000025e+00,0.000000000000000000e+00
8.154648000000000000e+06,1.788856267899999963e+00,0.000000000000000000e+00
8.158524000000000000e+06,1.774193525300000074e+00,0.000000000000000000e+00
8.162404000000000000e+06,1.735092878299999919e+00,0.000000000000000000e+00
8.166276000000000000e+06,1.695992231299999986e+00,0.000000000000000000e+00
8.170168000000000000e+06,1.691104650400000020e+00,0.000000000000000000e+00
8.174040000000000000e+06,1.686216926499999991e+00,0.000000000000000000e+00
8.177928000000000000e+06,1.700879812199999952e+00,0.000000000000000000e+00
8.181796000000000000e+06,1.681329345700000033e+00,0.000000000000000000e+00
8.185676000000000000e+06,1.661779022199999956e+00,0.000000000000000000e+00
8.189552000000000000e+06,1.652003860400000024e+00,0.000000000000000000e+00
8.193412000000000000e+06,1.676441764800000067e+00,0.000000000000000000e+00
8.197292000000000000e+06,1.691104650400000020e+00,0.000000000000000000e+00
8.201164000000000000e+06,1.691104650400000020e+00,0.000000000000000000e+00
8.205040000000000000e+06,1.671554183900000101e+00,0.000000000000000000e+00
8.208916000000000000e+06,1.666666602999999913e+00,0.000000000000000000e+00
8.212788000000000000e+06,1.676441764800000067e+00,0.000000000000000000e+00
8.216668000000000000e+06,1.681329345700000033e+00,0.000000000000000000e+00
8.220540000000000000e+06,1.676441764800000067e+00,0.000000000000000000e+00
8.224416000000000000e+06,1.700879812199999952e+00,0.000000000000000000e+00
8.228284000000000000e+06,1.779081106100000031e+00,0.000000000000000000e+00
8.232160000000000000e+06,1.955034255900000018e+00,0.000000000000000000e+00
8.236028000000000000e+06,2.223851442299999981e+00,0.000000000000000000e+00
8.239916000000000000e+06,2.551319599100000168e+00,0.000000000000000000e+00
8.243804000000000000e+06,2.883675575199999841e+00,0.000000000000000000e+00
8.247688000000000000e+06,3.186705827699999993e+00,0.000000000000000000e+00
8.251556000000000000e+06,3.372433900799999940e+00,0.000000000000000000e+00
8.255420000000000000e+06,3.304007768600000006e+00,0.000000000000000000e+00
8.259284000000000000e+06,3.005865097000000041e+00,0.000000000000000000e+00
8.263140000000000000e+06,2.536656856500000057e+00,0.000000000000000000e+00
8.267024000000000000e+06,1.989247321999999984e+00,0.000000000000000000e+00
8.270896000000000000e+06,1.544476985900000043e+00,0.000000000000000000e+00
8.274772000000000000e+06,1.251221895200000045e+00,0.000000000000000000e+00
8.278660000000000000e+06,1.119257092400000042e+00,0.000000000000000000e+00
8.282528000000000000e+06,1.099706764200000020e+00,0.000000000000000000e+00
8.286392000000000000e+06,1.148582577700000051e+00,1.000000000000000000e+00
8.290268000000000000e+06,1.260997056899999968e+00,0.000000000000000000e+00
8.294140000000000000e+06,1.378299117000000074e+00,0.000000000000000000e+00
8.298024000000000000e+06,1.480938434600000075e+00,0.000000000000000000e+00
8.301900000000000000e+06,1.539589405000000077e+00,0.000000000000000000e+00
8.305764000000000000e+06,1.559139728499999933e+00,0.000000000000000000e+00
8.309644000000000000e+06,1.578690147299999902e+00,0.000000000000000000e+00
8.313520000000000000e+06,1.612903213500000099e+00,0.000000000000000000e+00
8.317396000000000000e+06,1.632453536899999946e+00,0.000000000000000000e+00
8.321284000000000000e+06,1.632453536899999946e+00,0.000000000000000000e+00
8.325168000000000000e+06,1.622678375200000023e+00,0.000000000000000000e+00
8.329044000000000000e+06,1.617790794300000057e+00,0.000000000000000000e+00
8.332924000000000000e+06,1.632453536899999946e+00,0.000000000000000000e+00
8.336804000000000000e+06,1.661779022199999956e+00,0.000000000000000000e+00
8.340688000000000000e+06,1.686216926499999991e+00,0.000000000000000000e+00
8.344560000000000000e+06,1.671554183900000101e+00,0.000000000000000000e+00
8.348436000000000000e+06,1.681329345700000033e+00,0.000000000000000000e+00
8.352324000000000000e+06,1.691104650400000020e+00,0.000000000000000000e+00
8.356196000000000000e+06,1.720430135700000029e+00,0.000000000000000000e+00
8.360080000000000000e+06,1.730205297399999953e+00,0.000000000000000000e+00
8.363944000000000000e+06,1.725317716499999987e+00,0.000000000000000000e+00
8.367832000000000000e+06,1.715542554800000064e+00,0.000000000000000000e+00
8.371720000000000000e+06,1.725317716499999987e+00,0.000000000000000000e+00
8.375596000000000000e+06,1.759530782599999954e+00,0.000000000000000000e+00
8.379468000000000000e+06,1.774193525300000074e+00,0.000000000000000000e+00
8.383340000000000000e+06,1.783968686999999997e+00,0.000000000000000000e+00
8.387220000000000000e+06,1.764418363499999920e+00,0.000000000000000000e+00
8.391104000000000000e+06,1.779081106100000031e+00,0.000000000000000000e+00
8.394972000000000000e+06,1.793743848799999929e+00,0.000000000000000000e+00
8.398860000000000000e+06,1.808406638999999982e+00,0.000000000000000000e+00
8.402728000000000000e+06,1.808406638999999982e+00,0.000000000000000000e+00
8.406592000000000000e+06,1.808406638999999982e+00,0.000000000000000000e+00
8.410452000000000000e+06,1.823069476999999994e+00,0.000000000000000000e+00
8.414320000000000000e+06,1.847507381400000037e+00,0.000000000000000000e+00
8.418188000000000000e+06,1.876832866600000038e+00,0.000000000000000000e+00
8.422072000000000000e+06,1.896383190099999894e+00,0.000000000000000000e+00
8.425948000000000000e+06,1.891495609199999928e+00,0.000000000000000000e+00
8.429824000000000000e+06,1.915933513599999971e+00,0.000000000000000000e+00
8.433708000000000000e+06,1.930596256200000083e+00,0.000000000000000000e+00
8.437576000000000000e+06,1.964809417699999949e+00,0.000000000000000000e+00
8.441448000000000000e+06,1.964809417699999949e+00,0.000000000000000000e+00
8.445328000000000000e+06,1.964809417699999949e+00,0.000000000000000000e+00
8.449208000000000000e+06,1.974584579400000095e+00,0.000000000000000000e+00
8.453076000000000000e+06,2.003910064599999874e+00,0.000000000000000000e+00
8.456940000000000000e+06,2.038123130699999841e+00,0.000000000000000000e+00
8.460812000000000000e+06,2.072336196799999808e+00,0.000000000000000000e+00
8.464684000000000000e+06,2.062561035099999884e+00,0.000000000000000000e+00
8.468540000000000000e+06,2.067448616000000072e+00,0.000000000000000000e+00
8.472396000000000000e+06,2.091886520300000107e+00,0.000000000000000000e+00
8.476268000000000000e+06,2.111436843799999963e+00,0.000000000000000000e+00
8.480156000000000000e+06,2.116324424700000151e+00,0.000000000000000000e+00
8.484044000000000000e+06,2.106549262999999783e+00,0.000000000000000000e+00
8.487916000000000000e+06,2.067448616000000072e+00,0.000000000000000000e+00
8.491788000000000000e+06,2.077223777699999996e+00,0.000000000000000000e+00
8.495668000000000000e+06,2.062561035099999884e+00,0.000000000000000000e+00
8.499532000000000000e+06,2.057673454200000140e+00,0.000000000000000000e+00
8.503396000000000000e+06,2.003910064599999874e+00,0.000000000000000000e+00
8.507256000000000000e+06,1.950146675100000060e+00,0.000000000000000000e+00
8.511132000000000000e+06,1.901270771000000082e+00,0.000000000000000000e+00
8.515008000000000000e+06,1.862170123999999927e+00,0.000000000000000000e+00
8.518888000000000000e+06,1.808406638999999982e+00,0.000000000000000000e+00
8.522756000000000000e+06,1.730205297399999953e+00,0.000000000000000000e+00
8.526628000000000000e+06,1.647116279600000066e+00,0.000000000000000000e+00
8.530516000000000000e+06,1.583577728200000090e+00,0.000000000000000000e+00
8.534388000000000000e+06,1.539589405000000077e+00,0.000000000000000000e+00
8.538256000000000000e+06,1.495601177199999965e+00,0.000000000000000000e+00
8.542124000000000000e+06,1.446725368400000100e+00,0.000000000000000000e+00
8.546004000000000000e+06,1.397849445300000104e+00,0.000000000000000000e+00
8.549888000000000000e+06,1.358748793600000004e+00,0.000000000000000000e+00
8.553772000000000000e+06,1.348973631800000073e+00,0.000000000000000000e+00
8.557652000000000000e+06,1.348973631800000073e+00,0.000000000000000000e+00
8.561528000000000000e+06,1.339198470099999927e+00,0.000000000000000000e+00
8.565396000000000000e+06,1.314760565700000106e+00,0.000000000000000000e+00
8.569276000000000000e+06,1.304985284800000089e+00,0.000000000000000000e+00
8.573156000000000000e+06,1.309872865600000047e+00,0.000000000000000000e+00
8.577036000000000000e+06,1.329423308299999995e+00,0.000000000000000000e+00
8.580908000000000000e+06,1.329423308299999995e+00,0.000000000000000000e+00
8.584788000000000000e+06,1.319648146600000072e+00,0.000000000000000000e+00
8.588676000000000000e+06,1.319648146600000072e+00,0.000000000000000000e+00
8.592556000000000000e+06,1.334310889199999961e+00,0.000000000000000000e+00
8.596432000000000000e+06,1.358748793600000004e+00,0.000000000000000000e+00
8.600320000000000000e+06,1.373411536199999894e+00,0.000000000000000000e+00
8.604212000000000000e+06,1.378299117000000074e+00,0.000000000000000000e+00
8.608092000000000000e+06,1.388074283499999950e+00,0.000000000000000000e+00
8.611976000000000000e+06,1.397849445300000104e+00,0.000000000000000000e+00
8.615844000000000000e+06,1.427174949599999909e+00,0.000000000000000000e+00
8.619724000000000000e+06,1.441837787599999920e+00,0.000000000000000000e+00
8.623604000000000000e+06,1.441837787599999920e+00,0.000000000000000000e+00
8.627492000000000000e+06,1.432062530500000097e+00,0.000000000000000000e+00
8.631356000000000000e+06,1.441837787599999920e+00,0.000000000000000000e+00
8.635240000000000000e+06,1.476050853700000109e+00,0.000000000000000000e+00
8.639112000000000000e+06,1.485826015400000033e+00,0.000000000000000000e+00
8.642992000000000000e+06,1.476050853700000109e+00,0.000000000000000000e+00
8.646860000000000000e+06,1.471163272799999922e+00,0.000000000000000000e+00
8.650744000000000000e+06,1.490713596299999999e+00,0.000000000000000000e+00
8.654612000000000000e+06,1.500488757999999923e+00,0.000000000000000000e+00
8.658476000000000000e+06,1.520039081500000000e+00,0.000000000000000000e+00
8.662332000000000000e+06,1.520039081500000000e+00,0.000000000000000000e+00
8.666196000000000000e+06,1.505376338900000110e+00,0.000000000000000000e+00
8.670068000000000000e+06,1.505376338900000110e+00,0.000000000000000000e+00
8.673948000000000000e+06,1.520039081500000000e+00,0.000000000000000000e+00
8.677812000000000000e+06,1.544476985900000043e+00,0.000000000000000000e+00
8.681692000000000000e+06,1.534701824099999889e+00,0.000000000000000000e+00
8.685564000000000000e+06,1.524926662399999966e+00,0.000000000000000000e+00
8.689436000000000000e+06,1.515151500700000042e+00,0.000000000000000000e+00
8.693316000000000000e+06,1.524926662399999966e+00,0.000000000000000000e+00
8.697196000000000000e+06,1.534701824099999889e+00,0.000000000000000000e+00
8.701084000000000000e+06,1.520039081500000000e+00,0.000000000000000000e+00
8.704948000000000000e+06,1.500488757999999923e+00,0.000000000000000000e+00
8.708816000000000000e+06,1.485826015400000033e+00,0.000000000000000000e+00
8.712696000000000000e+06,1.495601177199999965e+00,0.000000000000000000e+00
8.716564000000000000e+06,1.510263919800000076e+00,0.000000000000000000e+00
8.720432000000000000e+06,1.515151500700000042e+00,0.000000000000000000e+00
8.724300000000000000e+06,1.505376338900000110e+00,0.000000000000000000e+00
8.728184000000000000e+06,1.490713596299999999e+00,0.000000000000000000e+00
8.732064000000000000e+06,1.490713596299999999e+00,0.000000000000000000e+00
8.735940000000000000e+06,1.505376338900000110e+00,0.000000000000000000e+00
8.739812000000000000e+06,1.510263919800000076e+00,0.000000000000000000e+00
8.743692000000000000e+06,1.500488757999999923e+00,0.000000000000000000e+00
8.747552000000000000e+06,1.480938434600000075e+00,0.000000000000000000e+00
8.751424000000000000e+06,1.480938434600000075e+00,0.000000000000000000e+00
8.755304000000000000e+06,1.490713596299999999e+00,0.000000000000000000e+00
8.759180000000000000e+06,1.500488757999999923e+00,0.000000000000000000e+00
8.763048000000000000e+06,1.495601177199999965e+00,0.000000000000000000e+00
8.766928000000000000e+06,1.480938434600000075e+00,0.000000000000000000e+00
8.770808000000000000e+06,1.485826015400000033e+00,0.000000000000000000e+00
8.774684000000000000e+06,1.490713596299999999e+00,0.000000000000000000e+00
8.778552000000000000e+06,1.495601177199999965e+00,0.000000000000000000e+00
8.782432000000000000e+06,1.480938434600000075e+00,0.000000000000000000e+00
8.786312000000000000e+06,1.466275691899999956e+00,0.000000000000000000e+00
8.790200000000000000e+06,1.456500530200000032e+00,0.000000000000000000e+00
8.794060000000000000e+06,1.461388111099999998e+00,0.000000000000000000e+00
8.797956000000000000e+06,1.471163272799999922e+00,0.000000000000000000e+00
8.801848000000000000e+06,1.466275691899999956e+00,0.000000000000000000e+00
8.805728000000000000e+06,1.456500530200000032e+00,0.000000000000000000e+00
8.809584000000000000e+06,1.451612949300000066e+00,0.000000000000000000e+00
8.813452000000000000e+06,1.461388111099999998e+00,0.000000000000000000e+00
8.817344000000000000e+06,1.495601177199999965e+00,0.000000000000000000e+00
8.821232000000000000e+06,1.485826015400000033e+00,0.000000000000000000e+00
8.825112000000000000e+06,1.485826015400000033e+00,0.000000000000000000e+00
8.828984000000000000e+06,1.480938434600000075e+00,0.000000000000000000e+00
8.832856000000000000e+06,1.485826015400000033e+00,0.000000000000000000e+00
8.836736000000000000e+06,1.495601177199999965e+00,0.000000000000000000e+00
8.840604000000000000e+06,1.505376338900000110e+00,0.000000000000000000e+00
8.844484000000000000e+06,1.490713596299999999e+00,0.000000000000000000e+00
8.848360000000000000e+06,1.490713596299999999e+00,0.000000000000000000e+00
8.852236000000000000e+06,1.500488757999999923e+00,0.000000000000000000e+00
8.856100000000000000e+06,1.520039081500000000e+00,0.000000000000000000e+00
8.859964000000000000e+06,1.520039081500000000e+00,0.000000000000000000e+00
8.863828000000000000e+06,1.505376338900000110e+00,0.000000000000000000e+00
8.867704000000000000e+06,1.466275691899999956e+00,0.000000000000000000e+00
8.871584000000000000e+06,1.436950111300000055e+00,0.000000000000000000e+00
8.875460000000000000e+06,1.402737045200000088e+00,0.000000000000000000e+00
8.879332000000000000e+06,1.378299117000000074e+00,0.000000000000000000e+00
8.883212000000000000e+06,1.334310889199999961e+00,0.000000000000000000e+00
8.887084000000000000e+06,1.295210122999999935e+00,0.000000000000000000e+00
8.890964000000000000e+06,1.270772218699999900e+00,0.000000000000000000e+00
8.894852000000000000e+06,1.265884637799999934e+00,0.000000000000000000e+00
8.898732000000000000e+06,1.270772218699999900e+00,0.000000000000000000e+00
8.902604000000000000e+06,1.265884637799999934e+00,0.000000000000000000e+00
8.906484000000000000e+06,1.280547380400000046e+00,0.000000000000000000e+00
8.910348000000000000e+06,1.275659799500000080e+00,0.000000000000000000e+00
8.914228000000000000e+06,1.290322542099999970e+00,0.000000000000000000e+00
8.918100000000000000e+06,1.309872865600000047e+00,0.000000000000000000e+00
8.921972000000000000e+06,1.319648146600000072e+00,0.000000000000000000e+00
8.925860000000000000e+06,1.319648146600000072e+00,0.000000000000000000e+00
8.929748000000000000e+06,1.329423308299999995e+00,0.000000000000000000e+00
8.933620000000000000e+06,1.339198470099999927e+00,0.000000000000000000e+00
8.937500000000000000e+06,1.358748793600000004e+00,0.000000000000000000e+00
8.941376000000000000e+06,1.368523955299999928e+00,0.000000000000000000e+00
8.945260000000000000e+06,1.363636374399999962e+00,0.000000000000000000e+00
8.949152000000000000e+06,1.368523955299999928e+00,0.000000000000000000e+00
8.953036000000000000e+06,1.417399787899999986e+00,0.000000000000000000e+00
8.956916000000000000e+06,1.520039081500000000e+00,0.000000000000000000e+00
8.960792000000000000e+06,1.710654973900000098e+00,0.000000000000000000e+00
8.964672000000000000e+06,1.969696998499999907e+00,0.000000000000000000e+00
8.968540000000000000e+06,2.316715478799999950e+00,0.000000000000000000e+00
8.972420000000000000e+06,2.678396940199999854e+00,0.000000000000000000e+00
8.976292000000000000e+06,3.030303001400000085e+00,0.000000000000000000e+00
8.980156000000000000e+06,3.172043084999999873e+00,0.000000000000000000e+00
8.984028000000000000e+06,3.049853324799999932e+00,0.000000000000000000e+00
8.987904000000000000e+06,2.717497587200000009e+00,0.000000000000000000e+00
8.991788000000000000e+06,2.233626603999999904e+00,0.000000000000000000e+00
8.995664000000000000e+06,1.739980459200000107e+00,0.000000000000000000e+00
8.999532000000000000e+06,1.344086050900000107e+00,0.000000000000000000e+00
9.003384000000000000e+06,1.070381283699999964e+00,0.000000000000000000e+00
9.007268000000000000e+06,9.481915472999999928e-01,0.000000000000000000e+00
9.011140000000000000e+06,9.481915472999999928e-01,1.000000000000000000e+00
9.015016000000000000e+06,1.031280517499999938e+00,0.000000000000000000e+00
9.018888000000000000e+06,1.148582577700000051e+00,0.000000000000000000e+00
9.022772000000000000e+06,1.270772218699999900e+00,0.000000000000000000e+00
9.026648000000000000e+06,1.358748793600000004e+00,0.000000000000000000e+00
9.030524000000000000e+06,1.422287368699999943e+00,0.000000000000000000e+00
9.034396000000000000e+06,1.471163272799999922e+00,0.000000000000000000e+00
9.038284000000000000e+06,1.510263919800000076e+00,0.000000000000000000e+00
9.042164000000000000e+06,1.529814243299999932e+00,0.000000000000000000e+00
9.046052000000000000e+06,1.539589405000000077e+00,0.000000000000000000e+00
9.049916000000000000e+06,1.549364566800000009e+00,0.000000000000000000e+00
9.053796000000000000e+06,1.564027404700000012e+00,0.000000000000000000e+00
9.057668000000000000e+06,1.578690147299999902e+00,0.000000000000000000e+00
9.061540000000000000e+06,1.598240470799999979e+00,0.000000000000000000e+00
9.065400000000000000e+06,1.608015632599999911e+00,0.000000000000000000e+00
9.069280000000000000e+06,1.622678375200000023e+00,0.000000000000000000e+00
9.073164000000000000e+06,1.637341117799999912e+00,0.000000000000000000e+00
9.077052000000000000e+06,1.656891441299999990e+00,0.000000000000000000e+00
9.080936000000000000e+06,1.671554183900000101e+00,0.000000000000000000e+00
9.084816000000000000e+06,1.671554183900000101e+00,0.000000000000000000e+00
9.088700000000000000e+06,1.676441764800000067e+00,0.000000000000000000e+00
9.092584000000000000e+06,1.686216926499999991e+00,0.000000000000000000e+00
9.096464000000000000e+06,1.710654973900000098e+00,0.000000000000000000e+00
9.100336000000000000e+06,1.730205297399999953e+00,0.000000000000000000e+00
9.104208000000000000e+06,1.739980459200000107e+00,0.000000000000000000e+00
9.108084000000000000e+06,1.759530782599999954e+00,0.000000000000000000e+00
9.111964000000000000e+06,1.754643201799999996e+00,0.000000000000000000e+00
9.115844000000000000e+06,1.774193525300000074e+00,0.000000000000000000e+00
9.119724000000000000e+06,1.783968686999999997e+00,0.000000000000000000e+00
9.123596000000000000e+06,1.793743848799999929e+00,0.000000000000000000e+00
9.127476000000000000e+06,1.788856267899999963e+00,0.000000000000000000e+00
9.131356000000000000e+06,1.798631429600000109e+00,0.000000000000000000e+00
9.135244000000000000e+06,1.832844638799999926e+00,0.000000000000000000e+00
9.139128000000000000e+06,1.842619800500000071e+00,0.000000000000000000e+00
9.143000000000000000e+06,1.857282543099999961e+00,0.000000000000000000e+00
9.146888000000000000e+06,1.862170123999999927e+00,0.000000000000000000e+00
9.150768000000000000e+06,1.871945285700000072e+00,0.000000000000000000e+00
9.154648000000000000e+06,1.886608028399999970e+00,0.000000000000000000e+00
9.158516000000000000e+06,1.915933513599999971e+00,0.000000000000000000e+00
9.162400000000000000e+06,1.935483837100000049e+00,0.000000000000000000e+00
9.166288000000000000e+06,1.955034255900000018e+00,0.000000000000000000e+00
9.170168000000000000e+06,1.979472160300000061e+00,0.000000000000000000e+00
9.174044000000000000e+06,1.989247321999999984e+00,0.000000000000000000e+00
9.177916000000000000e+06,2.013685226399999806e+00,0.000000000000000000e+00
9.181796000000000000e+06,2.033235549900000105e+00,0.000000000000000000e+00
9.185676000000000000e+06,2.052785873399999961e+00,0.000000000000000000e+00
9.189548000000000000e+06,2.062561035099999884e+00,0.000000000000000000e+00
9.193412000000000000e+06,2.072336196799999808e+00,0.000000000000000000e+00
9.197292000000000000e+06,2.082111358600000184e+00,0.000000000000000000e+00
9.201172000000000000e+06,2.091886520300000107e+00,0.000000000000000000e+00
9.205044000000000000e+06,2.091886520300000107e+00,0.000000000000000000e+00
9.208908000000000000e+06,2.091886520300000107e+00,0.000000000000000000e+00
9.212780000000000000e+06,2.086998939499999928e+00,0.000000000000000000e+00
9.216660000000000000e+06,2.096774101199999851e+00,0.000000000000000000e+00
9.220532000000000000e+06,2.086998939499999928e+00,0.000000000000000000e+00
9.224396000000000000e+06,2.082111358600000184e+00,0.000000000000000000e+00
9.228268000000000000e+06,2.043010711600000029e+00,0.000000000000000000e+00
9.232140000000000000e+06,2.023460388100000173e+00,0.000000000000000000e+00
9.236016000000000000e+06,1.969696998499999907e+00,0.000000000000000000e+00
9.239896000000000000e+06,1.935483837100000049e+00,0.000000000000000000e+00
9.243784000000000000e+06,1.862170123999999927e+00,0.000000000000000000e+00
9.247652000000000000e+06,1.798631429600000109e+00,0.000000000000000000e+00
9.251536000000000000e+06,1.725317716499999987e+00,0.000000000000000000e+00
9.255412000000000000e+06,1.666666602999999913e+00,0.000000000000000000e+00
9.259292000000000000e+06,1.617790794300000057e+00,0.000000000000000000e+00
9.263164000000000000e+06,1.554252147599999967e+00,0.000000000000000000e+00
9.267044000000000000e+06,1.510263919800000076e+00,0.000000000000000000e+00
9.270924000000000000e+06,1.461388111099999998e+00,0.000000000000000000e+00
9.274820000000000000e+06,1.432062530500000097e+00,0.000000000000000000e+00
9.278700000000000000e+06,1.412512207000000020e+00,0.000000000000000000e+00
9.282580000000000000e+06,1.388074283499999950e+00,0.000000000000000000e+00
9.286444000000000000e+06,1.363636374399999962e+00,0.000000000000000000e+00
9.290332000000000000e+06,1.344086050900000107e+00,0.000000000000000000e+00
9.294196000000000000e+06,1.344086050900000107e+00,0.000000000000000000e+00
9.298060000000000000e+06,1.353861212700000038e+00,0.000000000000000000e+00
9.301940000000000000e+06,1.363636374399999962e+00,0.000000000000000000e+00
9.305828000000000000e+06,1.363636374399999962e+00,0.000000000000000000e+00
9.309720000000000000e+06,1.373411536199999894e+00,0.000000000000000000e+00
9.313596000000000000e+06,1.388074283499999950e+00,0.000000000000000000e+00
9.317460000000000000e+06,1.407624626100000054e+00,0.000000000000000000e+00
9.321332000000000000e+06,1.412512207000000020e+00,0.000000000000000000e+00
9.325212000000000000e+06,1.417399787899999986e+00,0.000000000000000000e+00
9.329100000000000000e+06,1.422287368699999943e+00,0.000000000000000000e+00
9.332980000000000000e+06,1.432062530500000097e+00,0.000000000000000000e+00
9.336860000000000000e+06,1.456500530200000032e+00,0.000000000000000000e+00
9.340728000000000000e+06,1.480938434600000075e+00,0.000000000000000000e+00
9.344600000000000000e+06,1.490713596299999999e+00,0.000000000000000000e+00
9.348472000000000000e+06,1.495601177199999965e+00,0.000000000000000000e+00
9.352356000000000000e+06,1.500488757999999923e+00,0.000000000000000000e+00
9.356212000000000000e+06,1.510263919800000076e+00,0.000000000000000000e+00
9.360092000000000000e+06,1.524926662399999966e+00,0.000000000000000000e+00
9.363972000000000000e+06,1.529814243299999932e+00,0.000000000000000000e+00
9.367860000000000000e+06,1.534701824099999889e+00,0.000000000000000000e+00
9.371732000000000000e+06,1.534701824099999889e+00,0.000000000000000000e+00
9.375596000000000000e+06,1.554252147599999967e+00,0.000000000000000000e+00
9.379476000000000000e+06,1.549364566800000009e+00,0.000000000000000000e+00
9.383364000000000000e+06,1.559139728499999933e+00,0.000000000000000000e+00
9.387244000000000000e+06,1.559139728499999933e+00,0.000000000000000000e+00
9.391132000000000000e+06,1.559139728499999933e+00,0.000000000000000000e+00
9.395012000000000000e+06,1.568914985599999978e+00,0.000000000000000000e+00
9.398900000000000000e+06,1.568914985599999978e+00,0.000000000000000000e+00
9.402780000000000000e+06,1.568914985599999978e+00,0.000000000000000000e+00
9.406660000000000000e+06,1.564027404700000012e+00,0.000000000000000000e+00
9.410532000000000000e+06,1.568914985599999978e+00,0.000000000000000000e+00
9.414412000000000000e+06,1.578690147299999902e+00,0.000000000000000000e+00
9.418296000000000000e+06,1.593352890000000022e+00,0.000000000000000000e+00
9.422164000000000000e+06,1.603128051699999945e+00,0.000000000000000000e+00
9.426044000000000000e+06,1.603128051699999945e+00,0.000000000000000000e+00
9.429916000000000000e+06,1.603128051699999945e+00,0.000000000000000000e+00
9.433800000000000000e+06,1.612903213500000099e+00,0.000000000000000000e+00
9.437688000000000000e+06,1.622678375200000023e+00,0.000000000000000000e+00
9.441564000000000000e+06,1.617790794300000057e+00,0.000000000000000000e+00
9.445432000000000000e+06,1.622678375200000023e+00,0.000000000000000000e+00
9.449312000000000000e+06,1.608015632599999911e+00,0.000000000000000000e+00
9.453192000000000000e+06,1.608015632599999911e+00,0.000000000000000000e+00
9.457068000000000000e+06,1.612903213500000099e+00,0.000000000000000000e+00
9.460960000000000000e+06,1.612903213500000099e+00,0.000000000000000000e+00
9.464844000000000000e+06,1.612903213500000099e+00,0.000000000000000000e+00
9.468724000000000000e+06,1.603128051699999945e+00,0.000000000000000000e+00
9.472596000000000000e+06,1.603128051699999945e+00,0.000000000000000000e+00
9.476468000000000000e+06,1.617790794300000057e+00,0.000000000000000000e+00
9.480356000000000000e+06,1.627565956099999989e+00,0.000000000000000000e+00
9.484236000000000000e+06,1.627565956099999989e+00,0.000000000000000000e+00
9.488124000000000000e+06,1.627565956099999989e+00,0.000000000000000000e+00
9.492012000000000000e+06,1.632453536899999946e+00,0.000000000000000000e+00
9.495900000000000000e+06,1.642228698700000100e+00,0.000000000000000000e+00
9.499788000000000000e+06,1.647116279600000066e+00,0.000000000000000000e+00
9.503668000000000000e+06,1.661779022199999956e+00,0.000000000000000000e+00
9.507540000000000000e+06,1.647116279600000066e+00,0.000000000000000000e+00
9.511420000000000000e+06,1.647116279600000066e+00,0.000000000000000000e+00
9.515308000000000000e+06,1.652003860400000024e+00,0.000000000000000000e+00
9.519176000000000000e+06,1.671554183900000101e+00,0.000000000000000000e+00
9.523052000000000000e+06,1.666666602999999913e+00,0.000000000000000000e+00
9.526928000000000000e+06,1.671554183900000101e+00,0.000000000000000000e+00
9.530812000000000000e+06,1.676441764800000067e+00,0.000000000000000000e+00
9.534700000000000000e+06,1.691104650400000020e+00,0.000000000000000000e+00
9.538572000000000000e+06,1.705767393099999918e+00,0.000000000000000000e+00
9.542444000000000000e+06,1.720430135700000029e+00,0.000000000000000000e+00
9.546328000000000000e+06,1.730205297399999953e+00,0.000000000000000000e+00
9.550200000000000000e+06,1.730205297399999953e+00,0.000000000000000000e+00
9.554080000000000000e+06,1.739980459200000107e+00,0.000000000000000000e+00
9.557948000000000000e+06,1.754643201799999996e+00,0.000000000000000000e+00
9.561828000000000000e+06,1.769305944400000108e+00,0.000000000000000000e+00
9.565712000000000000e+06,1.779081106100000031e+00,0.000000000000000000e+00
9.569580000000000000e+06,1.783968686999999997e+00,0.000000000000000000e+00
9.573444000000000000e+06,1.793743848799999929e+00,0.000000000000000000e+00
9.577324000000000000e+06,1.818181896200000036e+00,0.000000000000000000e+00
9.581212000000000000e+06,1.823069476999999994e+00,0.000000000000000000e+00
9.585092000000000000e+06,1.823069476999999994e+00,0.000000000000000000e+00
9.588964000000000000e+06,1.813294315300000070e+00,0.000000000000000000e+00
9.592860000000000000e+06,1.803519058200000025e+00,0.000000000000000000e+00
9.596724000000000000e+06,1.798631429600000109e+00,0.000000000000000000e+00
9.600604000000000000e+06,1.774193525300000074e+00,0.000000000000000000e+00
9.604488000000000000e+06,1.749755620900000030e+00,0.000000000000000000e+00
9.608368000000000000e+06,1.725317716499999987e+00,0.000000000000000000e+00
9.612244000000000000e+06,1.695992231299999986e+00,0.000000000000000000e+00
9.616132000000000000e+06,1.691104650400000020e+00,0.000000000000000000e+00
9.620016000000000000e+06,1.671554183900000101e+00,0.000000000000000000e+00
9.623900000000000000e+06,1.661779022199999956e+00,0.000000000000000000e+00
9.627788000000000000e+06,1.647116279600000066e+00,0.000000000000000000e+00
9.631676000000000000e+06,1.637341117799999912e+00,0.000000000000000000e+00
9.635556000000000000e+06,1.652003860400000024e+00,0.000000000000000000e+00
9.639420000000000000e+06,1.647116279600000066e+00,0.000000000000000000e+00
9.643308000000000000e+06,1.661779022199999956e+00,0.000000000000000000e+00
9.647184000000000000e+06,1.652003860400000024e+00,0.000000000000000000e+00
9.651044000000000000e+06,1.656891441299999990e+00,0.000000000000000000e+00
9.654932000000000000e+06,1.661779022199999956e+00,0.000000000000000000e+00
9.658820000000000000e+06,1.676441764800000067e+00,0.000000000000000000e+00
9.662708000000000000e+06,1.676441764800000067e+00,0.000000000000000000e+00
9.666588000000000000e+06,1.666666602999999913e+00,0.000000000000000000e+00
9.670444000000000000e+06,1.652003860400000024e+00,0.000000000000000000e+00
9.674308000000000000e+06,1.661779022199999956e+00,0.000000000000000000e+00
9.678200000000000000e+06,1.710654973900000098e+00,0.000000000000000000e+00
9.682084000000000000e+06,1.813294315300000070e+00,0.000000000000000000e+00
9.685968000000000000e+06,1.999022483799999916e+00,0.000000000000000000e+00
9.689844000000000000e+06,2.258064508399999948e+00,0.000000000000000000e+00
9.693716000000000000e+06,2.605082988699999991e+00,0.000000000000000000e+00
9.697580000000000000e+06,2.971652030900000074e+00,0.000000000000000000e+00
9.701444000000000000e+06,3.284457445100000150e+00,0.000000000000000000e+00
9.705324000000000000e+06,3.401759624399999904e+00,0.000000000000000000e+00
9.709204000000000000e+06,3.240469217299999816e+00,0.000000000000000000e+00
9.713096000000000000e+06,2.873900222700000118e+00,0.000000000000000000e+00
9.716964000000000000e+06,2.385141849500000077e+00,0.000000000000000000e+00
9.720852000000000000e+06,1.876832866600000038e+00,0.000000000000000000e+00
9.724728000000000000e+06,1.476050853700000109e+00,0.000000000000000000e+00
9.728596000000000000e+06,1.207233667299999924e+00,0.000000000000000000e+00
9.732464000000000000e+06,1.094819183300000054e+00,0.000000000000000000e+00
9.736348000000000000e+06,1.114369511600000084e+00,1.000000000000000000e+00
9.740228000000000000e+06,1.197458505600000001e+00,0.000000000000000000e+00
9.744108000000000000e+06,1.300097703899999901e+00,0.000000000000000000e+00
9.747972000000000000e+06,1.407624626100000054e+00,0.000000000000000000e+00
9.751864000000000000e+06,1.485826015400000033e+00,0.000000000000000000e+00
9.755732000000000000e+06,1.554252147599999967e+00,0.000000000000000000e+00
9.759604000000000000e+06,1.598240470799999979e+00,0.000000000000000000e+00
9.763468000000000000e+06,1.627565956099999989e+00,0.000000000000000000e+00
9.767356000000000000e+06,1.656891441299999990e+00,0.000000000000000000e+00
9.771244000000000000e+06,1.666666602999999913e+00,0.000000000000000000e+00
9.775116000000000000e+06,1.691104650400000020e+00,0.000000000000000000e+00
9.778980000000000000e+06,1.705767393099999918e+00,0.000000000000000000e+00
9.782864000000000000e+06,1.730205297399999953e+00,0.000000000000000000e+00
9.786736000000000000e+06,1.725317716499999987e+00,0.000000000000000000e+00
9.790620000000000000e+06,1.735092878299999919e+00,0.000000000000000000e+00
9.794496000000000000e+06,1.749755620900000030e+00,0.000000000000000000e+00
9.798372000000000000e+06,1.764418363499999920e+00,0.000000000000000000e+00
9.802260000000000000e+06,1.783968686999999997e+00,0.000000000000000000e+00
9.806140000000000000e+06,1.788856267899999963e+00,0.000000000000000000e+00
9.810012000000000000e+06,1.798631429600000109e+00,0.000000000000000000e+00
9.813896000000000000e+06,1.808406638999999982e+00,0.000000000000000000e+00
9.817768000000000000e+06,1.842619800500000071e+00,0.000000000000000000e+00
9.821632000000000000e+06,1.842619800500000071e+00,0.000000000000000000e+00
9.825496000000000000e+06,1.847507381400000037e+00,0.000000000000000000e+00
9.829372000000000000e+06,1.852394962300000003e+00,0.000000000000000000e+00
9.833264000000000000e+06,1.857282543099999961e+00,0.000000000000000000e+00
9.837152000000000000e+06,1.867057704899999893e+00,0.000000000000000000e+00
9.841020000000000000e+06,1.891495609199999928e+00,0.000000000000000000e+00
9.844904000000000000e+06,1.886608028399999970e+00,0.000000000000000000e+00
9.848764000000000000e+06,1.911045932700000005e+00,0.000000000000000000e+00
9.852636000000000000e+06,1.911045932700000005e+00,0.000000000000000000e+00
9.856516000000000000e+06,1.940371513299999906e+00,0.000000000000000000e+00
9.860392000000000000e+06,1.945259094200000094e+00,0.000000000000000000e+00
9.864264000000000000e+06,1.955034255900000018e+00,0.000000000000000000e+00
9.868136000000000000e+06,1.950146675100000060e+00,0.000000000000000000e+00
9.872024000000000000e+06,1.964809417699999949e+00,0.000000000000000000e+00
9.875904000000000000e+06,1.989247321999999984e+00,0.000000000000000000e+00
9.879780000000000000e+06,2.018572807299999994e+00,0.000000000000000000e+00
9.883644000000000000e+06,2.043010711600000029e+00,0.000000000000000000e+00
9.887516000000000000e+06,2.072336196799999808e+00,0.000000000000000000e+00
9.891388000000000000e+06,2.072336196799999808e+00,0.000000000000000000e+00
9.895268000000000000e+06,2.091886520300000107e+00,0.000000000000000000e+00
9.899140000000000000e+06,2.111436843799999963e+00,0.000000000000000000e+00
9.903020000000000000e+06,2.126099824899999824e+00,0.000000000000000000e+00
9.906900000000000000e+06,2.135874986600000192e+00,0.000000000000000000e+00
9.910788000000000000e+06,2.150537729199999859e+00,0.000000000000000000e+00
9.914668000000000000e+06,2.165200471799999971e+00,0.000000000000000000e+00
9.918540000000000000e+06,2.179863214400000082e+00,0.000000000000000000e+00
9.922412000000000000e+06,2.204301118800000125e+00,0.000000000000000000e+00
9.926292000000000000e+06,2.194525957100000202e+00,0.000000000000000000e+00
9.930180000000000000e+06,2.194525957100000202e+00,0.000000000000000000e+00
9.934068000000000000e+06,2.194525957100000202e+00,0.000000000000000000e+00
9.937956000000000000e+06,2.194525957100000202e+00,0.000000000000000000e+00
9.941836000000000000e+06,2.189638376200000014e+00,0.000000000000000000e+00
9.945716000000000000e+06,2.170088052700000159e+00,0.000000000000000000e+00
9.949580000000000000e+06,2.170088052700000159e+00,0.000000000000000000e+00
9.953452000000000000e+06,2.126099824899999824e+00,0.000000000000000000e+00
9.957324000000000000e+06,2.111436843799999963e+00,0.000000000000000000e+00
9.961212000000000000e+06,2.067448616000000072e+00,0.000000000000000000e+00
9.965084000000000000e+06,2.013685226399999806e+00,0.000000000000000000e+00
9.968968000000000000e+06,1.945259094200000094e+00,0.000000000000000000e+00
9.972836000000000000e+06,1.881720447500000004e+00,0.000000000000000000e+00
9.976708000000000000e+06,1.823069476999999994e+00,0.000000000000000000e+00
9.980580000000000000e+06,1.769305944400000108e+00,0.000000000000000000e+00
9.984452000000000000e+06,1.705767393099999918e+00,0.000000000000000000e+00
9.988332000000000000e+06,1.652003860400000024e+00,0.000000000000000000e+00
9.992204000000000000e+06,1.603128051699999945e+00,0.000000000000000000e+00
9.996076000000000000e+06,1.568914985599999978e+00,0.000000000000000000e+00
9.999956000000000000e+06,1.539589405000000077e+00,0.000000000000000000e+00
1.000382800000000000e+07,1.515151500700000042e+00,0.000000000000000000e+00
1.000775200000000000e+07,1.490713596299999999e+00,0.000000000000000000e+00
1.001167600000000000e+07,1.480938434600000075e+00,0.000000000000000000e+00
1.001558400000000000e+07,1.476050853700000109e+00,0.000000000000000000e+00
1.001949600000000000e+07,1.485826015400000033e+00,0.000000000000000000e+00
1.002341600000000000e+07,1.466275691899999956e+00,0.000000000000000000e+00
1.002733600000000000e+07,1.466275691899999956e+00,0.000000000000000000e+00
1.003126400000000000e+07,1.476050853700000109e+00,0.000000000000000000e+00
1.003516800000000000e+07,1.490713596299999999e+00,0.000000000000000000e+00
1.003908400000000000e+07,1.505376338900000110e+00,0.000000000000000000e+00
1.004299600000000000e+07,1.529814243299999932e+00,0.000000000000000000e+00
1.004692400000000000e+07,1.534701824099999889e+00,0.000000000000000000e+00
1.005084400000000000e+07,1.544476985900000043e+00,0.000000000000000000e+00
1.005475600000000000e+07,1.559139728499999933e+00,0.000000000000000000e+00
1.005867600000000000e+07,1.583577728200000090e+00,0.000000000000000000e+00
1.006258800000000000e+07,1.588465309100000056e+00,0.000000000000000000e+00
1.006650000000000000e+07,1.588465309100000056e+00,0.000000000000000000e+00
1.007042400000000000e+07,1.593352890000000022e+00,0.000000000000000000e+00
1.007433200000000000e+07,1.603128051699999945e+00,0.000000000000000000e+00
1.007825200000000000e+07,1.622678375200000023e+00,0.000000000000000000e+00
1.008217200000000000e+07,1.637341117799999912e+00,0.000000000000000000e+00
1.008610000000000000e+07,1.642228698700000100e+00,0.000000000000000000e+00
1.009002000000000000e+07,1.652003860400000024e+00,0.000000000000000000e+00
1.009392400000000000e+07,1.647116279600000066e+00,0.000000000000000000e+00
1.009785200000000000e+07,1.676441764800000067e+00,0.000000000000000000e+00
1.010178000000000000e+07,1.691104650400000020e+00,0.000000000000000000e+00
1.010568800000000000e+07,1.681329345700000033e+00,0.000000000000000000e+00
1.010960400000000000e+07,1.676441764800000067e+00,0.000000000000000000e+00
1.011352400000000000e+07,1.681329345700000033e+00,0.000000000000000000e+00
1.011744800000000000e+07,1.686216926499999991e+00,0.000000000000000000e+00
1.012137600000000000e+07,1.691104650400000020e+00,0.000000000000000000e+00
1.012527600000000000e+07,1.691104650400000020e+00,0.000000000000000000e+00
1.012920000000000000e+07,1.700879812199999952e+00,0.000000000000000000e+00
1.013311200000000000e+07,1.686216926499999991e+00,0.000000000000000000e+00
1.013703600000000000e+07,1.705767393099999918e+00,0.000000000000000000e+00
1.014096800000000000e+07,1.710654973900000098e+00,0.000000000000000000e+00
1.014488000000000000e+07,1.700879812199999952e+00,0.000000000000000000e+00
1.014878800000000000e+07,1.695992231299999986e+00,0.000000000000000000e+00
1.015272000000000000e+07,1.710654973900000098e+00,0.000000000000000000e+00
1.015663200000000000e+07,1.725317716499999987e+00,0.000000000000000000e+00
1.016055600000000000e+07,1.735092878299999919e+00,0.000000000000000000e+00
1.016446800000000000e+07,1.735092878299999919e+00,0.000000000000000000e+00
1.016838400000000000e+07,1.715542554800000064e+00,0.000000000000000000e+00
1.017230400000000000e+07,1.710654973900000098e+00,0.000000000000000000e+00
1.017622400000000000e+07,1.710654973900000098e+00,0.000000000000000000e+00
1.018014000000000000e+07,1.735092878299999919e+00,0.000000000000000000e+00
1.018406000000000000e+07,1.720430135700000029e+00,0.000000000000000000e+00
1.018797200000000000e+07,1.720430135700000029e+00,0.000000000000000000e+00
1.019189200000000000e+07,1.720430135700000029e+00,0.000000000000000000e+00
1.019580800000000000e+07,1.730205297399999953e+00,0.000000000000000000e+00
1.019972000000000000e+07,1.739980459200000107e+00,0.000000000000000000e+00
1.020363200000000000e+07,1.744868040000000065e+00,0.000000000000000000e+00
1.020753200000000000e+07,1.739980459200000107e+00,0.000000000000000000e+00
1.021143600000000000e+07,1.735092878299999919e+00,0.000000000000000000e+00
1.021534800000000000e+07,1.735092878299999919e+00,0.000000000000000000e+00
1.021927200000000000e+07,1.739980459200000107e+00,0.000000000000000000e+00
1.022319200000000000e+07,1.744868040000000065e+00,0.000000000000000000e+00
1.022709600000000000e+07,1.749755620900000030e+00,0.000000000000000000e+00
1.023101200000000000e+07,1.754643201799999996e+00,0.000000000000000000e+00
1.023493200000000000e+07,1.754643201799999996e+00,0.000000000000000000e+00
1.023884400000000000e+07,1.779081106100000031e+00,0.000000000000000000e+00
1.024276400000000000e+07,1.774193525300000074e+00,0.000000000000000000e+00
1.024668400000000000e+07,1.783968686999999997e+00,0.000000000000000000e+00
1.025058800000000000e+07,1.779081106100000031e+00,0.000000000000000000e+00
1.025450000000000000e+07,1.793743848799999929e+00,0.000000000000000000e+00
1.025841600000000000e+07,1.808406638999999982e+00,0.000000000000000000e+00
1.026232000000000000e+07,1.818181896200000036e+00,0.000000000000000000e+00
1.026623600000000000e+07,1.818181896200000036e+00,0.000000000000000000e+00
1.027015600000000000e+07,1.823069476999999994e+00,0.000000000000000000e+00
1.027406800000000000e+07,1.832844638799999926e+00,0.000000000000000000e+00
1.027798400000000000e+07,1.842619800500000071e+00,0.000000000000000000e+00
1.028189200000000000e+07,1.852394962300000003e+00,0.000000000000000000e+00
1.028582400000000000e+07,1.862170123999999927e+00,0.000000000000000000e+00
1.028974400000000000e+07,1.871945285700000072e+00,0.000000000000000000e+00
1.029365200000000000e+07,1.876832866600000038e+00,0.000000000000000000e+00
1.029756400000000000e+07,1.891495609199999928e+00,0.000000000000000000e+00
1.030147600000000000e+07,1.906158351800000039e+00,0.000000000000000000e+00
1.030538800000000000e+07,1.915933513599999971e+00,0.000000000000000000e+00
1.030932000000000000e+07,1.920821094499999937e+00,0.000000000000000000e+00
1.031323200000000000e+07,1.925708675299999895e+00,0.000000000000000000e+00
1.031715200000000000e+07,1.930596256200000083e+00,0.000000000000000000e+00
1.032107200000000000e+07,1.920821094499999937e+00,0.000000000000000000e+00
1.032497200000000000e+07,1.911045932700000005e+00,0.000000000000000000e+00
1.032889200000000000e+07,1.891495609199999928e+00,0.000000000000000000e+00
1.033280800000000000e+07,1.867057704899999893e+00,0.000000000000000000e+00
1.033672000000000000e+07,1.837732219600000105e+00,0.000000000000000000e+00
1.034063600000000000e+07,1.813294315300000070e+00,0.000000000000000000e+00
1.034455600000000000e+07,1.783968686999999997e+00,0.000000000000000000e+00
1.034846000000000000e+07,1.764418363499999920e+00,0.000000000000000000e+00
1.035238000000000000e+07,1.754643201799999996e+00,0.000000000000000000e+00
1.035630000000000000e+07,1.759530782599999954e+00,0.000000000000000000e+00
1.036022000000000000e+07,1.769305944400000108e+00,0.000000000000000000e+00
1.036413200000000000e+07,1.769305944400000108e+00,0.000000000000000000e+00
1.036804800000000000e+07,1.764418363499999920e+00,0.000000000000000000e+00
1.037196400000000000e+07,1.764418363499999920e+00,0.000000000000000000e+00
1.037588400000000000e+07,1.769305944400000108e+00,0.000000000000000000e+00
1.037979600000000000e+07,1.779081106100000031e+00,0.000000000000000000e+00
1.038370800000000000e+07,1.779081106100000031e+00,0.000000000000000000e+00
1.038762000000000000e+07,1.774193525300000074e+00,0.000000000000000000e+00
1.039154000000000000e+07,1.769305944400000108e+00,0.000000000000000000e+00
1.039545200000000000e+07,1.764418363499999920e+00,0.000000000000000000e+00
1.039937200000000000e+07,1.769305944400000108e+00,0.000000000000000000e+00
1.040328400000000000e+07,1.788856267899999963e+00,0.000000000000000000e+00
1.040720800000000000e+07,1.847507381400000037e+00,0.000000000000000000e+00
1.041112000000000000e+07,1.974584579400000095e+00,0.000000000000000000e+00
1.041502800000000000e+07,2.199413537899999938e+00,0.000000000000000000e+00
1.041895600000000000e+07,2.521994113899999945e+00,0.000000000000000000e+00
1.042288400000000000e+07,2.888563156100000029e+00,0.000000000000000000e+00
1.042680400000000000e+07,3.235581636400000072e+00,0.000000000000000000e+00
1.043073200000000000e+07,3.455523014000000170e+00,0.000000000000000000e+00
1.043463600000000000e+07,3.426197528799999947e+00,0.000000000000000000e+00
1.043855600000000000e+07,3.147605180699999838e+00,0.000000000000000000e+00
1.044246000000000000e+07,2.693059682799999965e+00,0.000000000000000000e+00
1.044638000000000000e+07,2.170088052700000159e+00,0.000000000000000000e+00
1.045029600000000000e+07,1.710654973900000098e+00,0.000000000000000000e+00
1.045421200000000000e+07,1.383186702699999993e+00,0.000000000000000000e+00
1.045812800000000000e+07,1.202346086499999966e+00,0.000000000000000000e+00
1.046203200000000000e+07,1.173020482000000086e+00,0.000000000000000000e+00
1.046594000000000000e+07,1.231671571699999967e+00,1.000000000000000000e+00
1.046986800000000000e+07,1.329423308299999995e+00,0.000000000000000000e+00
1.047378800000000000e+07,1.441837787599999920e+00,0.000000000000000000e+00
1.047771600000000000e+07,1.549364566800000009e+00,0.000000000000000000e+00
1.048162800000000000e+07,1.627565956099999989e+00,0.000000000000000000e+00
1.048554800000000000e+07,1.671554183900000101e+00,0.000000000000000000e+00
1.048947200000000000e+07,1.700879812199999952e+00,0.000000000000000000e+00
1.049338400000000000e+07,1.730205297399999953e+00,0.000000000000000000e+00
1.049729200000000000e+07,1.754643201799999996e+00,0.000000000000000000e+00
1.050120400000000000e+07,1.779081106100000031e+00,0.000000000000000000e+00
1.050510800000000000e+07,1.788856267899999963e+00,0.000000000000000000e+00
1.050902800000000000e+07,1.793743848799999929e+00,0.000000000000000000e+00
1.051294800000000000e+07,1.793743848799999929e+00,0.000000000000000000e+00
1.051687600000000000e+07,1.813294315300000070e+00,0.000000000000000000e+00
1.052080800000000000e+07,1.823069476999999994e+00,0.000000000000000000e+00
1.052471600000000000e+07,1.827957057899999960e+00,0.000000000000000000e+00
1.052862000000000000e+07,1.823069476999999994e+00,0.000000000000000000e+00
1.053253200000000000e+07,1.823069476999999994e+00,0.000000000000000000e+00
1.053644000000000000e+07,1.842619800500000071e+00,0.000000000000000000e+00
1.054035200000000000e+07,1.867057704899999893e+00,0.000000000000000000e+00
1.054426400000000000e+07,1.886608028399999970e+00,0.000000000000000000e+00
1.054816800000000000e+07,1.886608028399999970e+00,0.000000000000000000e+00
1.055208000000000000e+07,1.886608028399999970e+00,0.000000000000000000e+00
1.055599200000000000e+07,1.901270771000000082e+00,0.000000000000000000e+00
1.055990000000000000e+07,1.911045932700000005e+00,0.000000000000000000e+00
1.056382400000000000e+07,1.920821094499999937e+00,0.000000000000000000e+00
1.056772800000000000e+07,1.930596256200000083e+00,0.000000000000000000e+00
1.057164000000000000e+07,1.935483837100000049e+00,0.000000000000000000e+00
1.057556400000000000e+07,1.955034255900000018e+00,0.000000000000000000e+00
1.057947200000000000e+07,1.974584579400000095e+00,0.000000000000000000e+00
1.058339200000000000e+07,1.984359741200000027e+00,0.000000000000000000e+00
1.058732000000000000e+07,1.989247321999999984e+00,0.000000000000000000e+00
1.059123600000000000e+07,1.994134902899999950e+00,0.000000000000000000e+00
1.059514800000000000e+07,2.003910064599999874e+00,0.000000000000000000e+00
1.059904400000000000e+07,2.028347968999999917e+00,0.000000000000000000e+00
1.060294800000000000e+07,2.052785873399999961e+00,0.000000000000000000e+00
1.060686000000000000e+07,2.057673454200000140e+00,0.000000000000000000e+00
1.061077200000000000e+07,2.067448616000000072e+00,0.000000000000000000e+00
1.061467600000000000e+07,2.086998939499999928e+00,0.000000000000000000e+00
1.061858000000000000e+07,2.116324424700000151e+00,0.000000000000000000e+00
1.062250000000000000e+07,2.145650148300000115e+00,0.000000000000000000e+00
1.062642000000000000e+07,2.160312890999999791e+00,0.000000000000000000e+00
1.063034000000000000e+07,2.170088052700000159e+00,0.000000000000000000e+00
1.063425200000000000e+07,2.184750795299999826e+00,0.000000000000000000e+00
1.063815600000000000e+07,2.199413537899999938e+00,0.000000000000000000e+00
1.064208400000000000e+07,2.214076280500000049e+00,0.000000000000000000e+00
1.064599600000000000e+07,2.223851442299999981e+00,0.000000000000000000e+00
1.064992400000000000e+07,2.228739023200000169e+00,0.000000000000000000e+00
1.065384400000000000e+07,2.238514184900000092e+00,0.000000000000000000e+00
1.065776400000000000e+07,2.248289346600000016e+00,0.000000000000000000e+00
1.066168400000000000e+07,2.253176927500000204e+00,0.000000000000000000e+00
1.066560400000000000e+07,2.243401765799999836e+00,0.000000000000000000e+00
1.066951600000000000e+07,2.228739023200000169e+00,0.000000000000000000e+00
1.067343600000000000e+07,2.218963861399999793e+00,0.000000000000000000e+00
1.067735600000000000e+07,2.214076280500000049e+00,0.000000000000000000e+00
1.068126800000000000e+07,2.199413537899999938e+00,0.000000000000000000e+00
1.068518800000000000e+07,2.165200471799999971e+00,0.000000000000000000e+00
1.068910000000000000e+07,2.116324424700000151e+00,0.000000000000000000e+00
1.069302800000000000e+07,2.057673454200000140e+00,0.000000000000000000e+00
1.069694400000000000e+07,1.999022483799999916e+00,0.000000000000000000e+00
1.070085600000000000e+07,1.945259094200000094e+00,0.000000000000000000e+00
1.070476400000000000e+07,1.881720447500000004e+00,0.000000000000000000e+00
1.070868400000000000e+07,1.813294315300000070e+00,0.000000000000000000e+00
1.071260400000000000e+07,1.764418363499999920e+00,0.000000000000000000e+00
1.071653200000000000e+07,1.705767393099999918e+00,0.000000000000000000e+00
1.072044800000000000e+07,1.671554183900000101e+00,0.000000000000000000e+00
1.072437200000000000e+07,1.622678375200000023e+00,0.000000000000000000e+00
1.072829200000000000e+07,1.583577728200000090e+00,0.000000000000000000e+00
1.073222000000000000e+07,1.564027404700000012e+00,0.000000000000000000e+00
1.073613200000000000e+07,1.549364566800000009e+00,0.000000000000000000e+00
1.074006000000000000e+07,1.549364566800000009e+00,0.000000000000000000e+00
1.074398800000000000e+07,1.549364566800000009e+00,0.000000000000000000e+00
1.074791600000000000e+07,1.539589405000000077e+00,0.000000000000000000e+00
1.075182000000000000e+07,1.539589405000000077e+00,0.000000000000000000e+00
1.075573200000000000e+07,1.549364566800000009e+00,0.000000000000000000e+00
1.075965200000000000e+07,1.568914985599999978e+00,0.000000000000000000e+00
1.076357200000000000e+07,1.578690147299999902e+00,0.000000000000000000e+00
1.076748400000000000e+07,1.583577728200000090e+00,0.000000000000000000e+00
1.077139600000000000e+07,1.588465309100000056e+00,0.000000000000000000e+00
1.077531600000000000e+07,1.603128051699999945e+00,0.000000000000000000e+00
1.077923200000000000e+07,1.622678375200000023e+00,0.000000000000000000e+00
1.078315600000000000e+07,1.632453536899999946e+00,0.000000000000000000e+00
1.078707600000000000e+07,1.642228698700000100e+00,0.000000000000000000e+00
1.079098800000000000e+07,1.642228698700000100e+00,0.000000000000000000e+00
1.079490000000000000e+07,1.652003860400000024e+00,0.000000000000000000e+00
1.079880800000000000e+07,1.671554183900000101e+00,0.000000000000000000e+00
1.080273600000000000e+07,1.686216926499999991e+00,0.000000000000000000e+00
1.080665200000000000e+07,1.695992231299999986e+00,0.000000000000000000e+00
1.081057200000000000e+07,1.695992231299999986e+00,0.000000000000000000e+00
1.081449200000000000e+07,1.710654973900000098e+00,0.000000000000000000e+00
1.081840800000000000e+07,1.725317716499999987e+00,0.000000000000000000e+00
1.082233200000000000e+07,1.735092878299999919e+00,0.000000000000000000e+00
1.082625600000000000e+07,1.739980459200000107e+00,0.000000000000000000e+00
1.083016800000000000e+07,1.730205297399999953e+00,0.000000000000000000e+00
1.083408800000000000e+07,1.730205297399999953e+00,0.000000000000000000e+00
1.083799600000000000e+07,1.735092878299999919e+00,0.000000000000000000e+00
1.084192000000000000e+07,1.744868040000000065e+00,0.000000000000000000e+00
1.084582400000000000e+07,1.744868040000000065e+00,0.000000000000000000e+00
1.084972800000000000e+07,1.739980459200000107e+00,0.000000000000000000e+00
1.085364000000000000e+07,1.744868040000000065e+00,0.000000000000000000e+00
1.085754000000000000e+07,1.754643201799999996e+00,0.000000000000000000e+00
1.086144400000000000e+07,1.759530782599999954e+00,0.000000000000000000e+00
1.086535600000000000e+07,1.759530782599999954e+00,0.000000000000000000e+00
1.086926800000000000e+07,1.759530782599999954e+00,0.000000000000000000e+00
1.087318000000000000e+07,1.754643201799999996e+00,0.000000000000000000e+00
1.087710000000000000e+07,1.759530782599999954e+00,0.000000000000000000e+00
1.088101200000000000e+07,1.764418363499999920e+00,0.000000000000000000e+00
1.088494000000000000e+07,1.764418363499999920e+00,0.000000000000000000e+00
1.088886800000000000e+07,1.754643201799999996e+00,0.000000000000000000e+00
1.089278800000000000e+07,1.764418363499999920e+00,0.000000000000000000e+00
1.089670800000000000e+07,1.774193525300000074e+00,0.000000000000000000e+00
1.090062800000000000e+07,1.783968686999999997e+00,0.000000000000000000e+00
1.090454000000000000e+07,1.783968686999999997e+00,0.000000000000000000e+00
1.090844400000000000e+07,1.779081106100000031e+00,0.000000000000000000e+00
1.091235600000000000e+07,1.769305944400000108e+00,0.000000000000000000e+00
1.091627600000000000e+07,1.783968686999999997e+00,0.000000000000000000e+00
1.092018800000000000e+07,1.793743848799999929e+00,0.000000000000000000e+00
1.092410000000000000e+07,1.803519058200000025e+00,0.000000000000000000e+00
1.092801200000000000e+07,1.793743848799999929e+00,0.000000000000000000e+00
1.093194000000000000e+07,1.788856267899999963e+00,0.000000000000000000e+00
1.093586000000000000e+07,1.793743848799999929e+00,0.000000000000000000e+00
1.093978000000000000e+07,1.798631429600000109e+00,0.000000000000000000e+00
1.094370800000000000e+07,1.798631429600000109e+00,0.000000000000000000e+00
1.094762800000000000e+07,1.793743848799999929e+00,0.000000000000000000e+00
1.095154000000000000e+07,1.798631429600000109e+00,0.000000000000000000e+00
1.095546400000000000e+07,1.808406638999999982e+00,0.000000000000000000e+00
1.095937200000000000e+07,1.813294315300000070e+00,0.000000000000000000e+00
1.096330000000000000e+07,1.813294315300000070e+00,0.000000000000000000e+00
1.096723200000000000e+07,1.803519058200000025e+00,0.000000000000000000e+00
1.097114800000000000e+07,1.803519058200000025e+00,0.000000000000000000e+00
1.097505600000000000e+07,1.808406638999999982e+00,0.000000000000000000e+00
1.097896800000000000e+07,1.827957057899999960e+00,0.000000000000000000e+00
1.098288000000000000e+07,1.837732219600000105e+00,0.000000000000000000e+00
1.098679600000000000e+07,1.832844638799999926e+00,0.000000000000000000e+00
1.099072000000000000e+07,1.832844638799999926e+00,0.000000000000000000e+00
1.099463200000000000e+07,1.842619800500000071e+00,0.000000000000000000e+00
1.099854000000000000e+07,1.857282543099999961e+00,0.000000000000000000e+00
1.100246000000000000e+07,1.876832866600000038e+00,0.000000000000000000e+00
1.100638000000000000e+07,1.881720447500000004e+00,0.000000000000000000e+00
1.101030400000000000e+07,1.886608028399999970e+00,0.000000000000000000e+00
1.101420400000000000e+07,1.901270771000000082e+00,0.000000000000000000e+00
1.101811200000000000e+07,1.920821094499999937e+00,0.000000000000000000e+00
1.102203200000000000e+07,1.930596256200000083e+00,0.000000000000000000e+00
1.102594800000000000e+07,1.930596256200000083e+00,0.000000000000000000e+00
1.102987200000000000e+07,1.930596256200000083e+00,0.000000000000000000e+00
1.103379200000000000e+07,1.955034255900000018e+00,0.000000000000000000e+00
1.103770800000000000e+07,1.959921836799999983e+00,0.000000000000000000e+00
1.104161600000000000e+07,1.969696998499999907e+00,0.000000000000000000e+00
1.104552800000000000e+07,1.964809417699999949e+00,0.000000000000000000e+00
1.104944800000000000e+07,1.955034255900000018e+00,0.000000000000000000e+00
1.105336800000000000e+07,1.945259094200000094e+00,0.000000000000000000e+00
1.105728000000000000e+07,1.935483837100000049e+00,0.000000000000000000e+00
1.106120000000000000e+07,1.920821094499999937e+00,0.000000000000000000e+00
1.106510800000000000e+07,1.896383190099999894e+00,0.000000000000000000e+00
1.106903200000000000e+07,1.857282543099999961e+00,0.000000000000000000e+00
1.107295600000000000e+07,1.823069476999999994e+00,0.000000000000000000e+00
1.107687200000000000e+07,1.808406638999999982e+00,0.000000000000000000e+00
1.108076400000000000e+07,1.798631429600000109e+00,0.000000000000000000e+00
1.108467600000000000e+07,1.788856267899999963e+00,0.000000000000000000e+00
1.108859200000000000e+07,1.779081106100000031e+00,0.000000000000000000e+00
1.109249200000000000e+07,1.774193525300000074e+00,0.000000000000000000e+00
1.109642000000000000e+07,1.779081106100000031e+00,0.000000000000000000e+00
1.110034000000000000e+07,1.798631429600000109e+00,0.000000000000000000e+00
1.110425200000000000e+07,1.803519058200000025e+00,0.000000000000000000e+00
1.110816400000000000e+07,1.803519058200000025e+00,0.000000000000000000e+00
1.111207600000000000e+07,1.788856267899999963e+00,0.000000000000000000e+00
1.111599600000000000e+07,1.798631429600000109e+00,0.000000000000000000e+00
1.111991600000000000e+07,1.823069476999999994e+00,0.000000000000000000e+00
1.112382800000000000e+07,1.803519058200000025e+00,0.000000000000000000e+00
1.112773200000000000e+07,1.783968686999999997e+00,0.000000000000000000e+00
1.113163600000000000e+07,1.774193525300000074e+00,0.000000000000000000e+00
1.113556400000000000e+07,1.798631429600000109e+00,0.000000000000000000e+00
1.113947600000000000e+07,1.876832866600000038e+00,0.000000000000000000e+00
1.114339600000000000e+07,2.008797645500000062e+00,0.000000000000000000e+00
1.114730800000000000e+07,2.228739023200000169e+00,0.000000000000000000e+00
1.115122000000000000e+07,2.531769275599999869e+00,0.000000000000000000e+00
1.115514000000000000e+07,2.903225898700000140e+00,0.000000000000000000e+00
1.115906000000000000e+07,3.269794702500000039e+00,0.000000000000000000e+00
1.116297200000000000e+07,3.514173984500000181e+00,0.000000000000000000e+00
1.116690400000000000e+07,3.479960918400000214e+00,0.000000000000000000e+00
1.117081200000000000e+07,3.196480989399999917e+00,0.000000000000000000e+00
1.117472800000000000e+07,2.746823072399999788e+00,0.000000000000000000e+00
1.117863600000000000e+07,2.233626603999999904e+00,0.000000000000000000e+00
1.118254800000000000e+07,1.783968686999999997e+00,0.000000000000000000e+00
1.118645600000000000e+07,1.436950111300000055e+00,0.000000000000000000e+00
1.119037200000000000e+07,1.236559152599999933e+00,0.000000000000000000e+00
1.119428800000000000e+07,1.187683343800000069e+00,0.000000000000000000e+00
1.119821200000000000e+07,1.265884637799999934e+00,1.000000000000000000e+00
1.120213600000000000e+07,1.358748793600000004e+00,0.000000000000000000e+00
1.120605600000000000e+07,1.476050853700000109e+00,0.000000000000000000e+00
1.120996400000000000e+07,1.573802566499999944e+00,0.000000000000000000e+00
1.121387600000000000e+07,1.652003860400000024e+00,0.000000000000000000e+00
1.121778400000000000e+07,1.715542554800000064e+00,0.000000000000000000e+00
1.122170400000000000e+07,1.749755620900000030e+00,0.000000000000000000e+00
1.122561200000000000e+07,1.764418363499999920e+00,0.000000000000000000e+00
1.122952400000000000e+07,1.774193525300000074e+00,0.000000000000000000e+00
1.123345200000000000e+07,1.783968686999999997e+00,0.000000000000000000e+00
1.123736800000000000e+07,1.803519058200000025e+00,0.000000000000000000e+00
1.124128000000000000e+07,1.827957057899999960e+00,0.000000000000000000e+00
1.124519200000000000e+07,1.832844638799999926e+00,0.000000000000000000e+00
1.124911600000000000e+07,1.832844638799999926e+00,0.000000000000000000e+00
1.125304800000000000e+07,1.842619800500000071e+00,0.000000000000000000e+00
1.125696000000000000e+07,1.862170123999999927e+00,0.000000000000000000e+00
1.126086800000000000e+07,1.881720447500000004e+00,0.000000000000000000e+00
1.126479200000000000e+07,1.886608028399999970e+00,0.000000000000000000e+00
1.126870000000000000e+07,1.886608028399999970e+00,0.000000000000000000e+00
1.127260800000000000e+07,1.896383190099999894e+00,0.000000000000000000e+00
1.127651600000000000e+07,1.915933513599999971e+00,0.000000000000000000e+00
1.128044000000000000e+07,1.935483837100000049e+00,0.000000000000000000e+00
1.128436000000000000e+07,1.945259094200000094e+00,0.000000000000000000e+00
1.128828000000000000e+07,1.945259094200000094e+00,0.000000000000000000e+00
1.129220000000000000e+07,1.955034255900000018e+00,0.000000000000000000e+00
1.129612000000000000e+07,1.974584579400000095e+00,0.000000000000000000e+00
1.130004000000000000e+07,1.994134902899999950e+00,0.000000000000000000e+00
1.130395200000000000e+07,2.003910064599999874e+00,0.000000000000000000e+00
1.130785600000000000e+07,1.994134902899999950e+00,0.000000000000000000e+00
1.131177600000000000e+07,1.999022483799999916e+00,0.000000000000000000e+00
1.131568400000000000e+07,2.013685226399999806e+00,0.000000000000000000e+00
1.131959600000000000e+07,2.038123130699999841e+00,0.000000000000000000e+00
1.132350000000000000e+07,2.052785873399999961e+00,0.000000000000000000e+00
1.132741200000000000e+07,2.062561035099999884e+00,0.000000000000000000e+00
1.133132400000000000e+07,2.072336196799999808e+00,0.000000000000000000e+00
1.133523600000000000e+07,2.091886520300000107e+00,0.000000000000000000e+00
1.133914800000000000e+07,2.116324424700000151e+00,0.000000000000000000e+00
1.134307600000000000e+07,2.135874986600000192e+00,0.000000000000000000e+00
1.134699600000000000e+07,2.145650148300000115e+00,0.000000000000000000e+00
1.135090800000000000e+07,2.160312890999999791e+00,0.000000000000000000e+00
1.135482800000000000e+07,2.179863214400000082e+00,0.000000000000000000e+00
1.135874800000000000e+07,2.204301118800000125e+00,0.000000000000000000e+00
1.136265200000000000e+07,2.228739023200000169e+00,0.000000000000000000e+00
1.136658000000000000e+07,2.233626603999999904e+00,0.000000000000000000e+00
1.137047600000000000e+07,2.233626603999999904e+00,0.000000000000000000e+00
1.137439600000000000e+07,2.248289346600000016e+00,0.000000000000000000e+00
1.137831600000000000e+07,2.267839670099999871e+00,0.000000000000000000e+00
1.138223600000000000e+07,2.292277574499999915e+00,0.000000000000000000e+00
1.138615600000000000e+07,2.272727251000000059e+00,0.000000000000000000e+00
1.139007600000000000e+07,2.267839670099999871e+00,0.000000000000000000e+00
1.139398800000000000e+07,2.272727251000000059e+00,0.000000000000000000e+00
1.139790800000000000e+07,2.282502412699999983e+00,0.000000000000000000e+00
1.140182800000000000e+07,2.282502412699999983e+00,0.000000000000000000e+00
1.140574800000000000e+07,2.272727251000000059e+00,0.000000000000000000e+00
1.140966000000000000e+07,2.248289346600000016e+00,0.000000000000000000e+00
1.141357200000000000e+07,2.228739023200000169e+00,0.000000000000000000e+00
1.141748400000000000e+07,2.209188699699999869e+00,0.000000000000000000e+00
1.142139600000000000e+07,2.165200471799999971e+00,0.000000000000000000e+00
1.142531600000000000e+07,2.106549262999999783e+00,0.000000000000000000e+00
1.142923600000000000e+07,2.033235549900000105e+00,0.000000000000000000e+00
1.143315200000000000e+07,1.969696998499999907e+00,0.000000000000000000e+00
1.143706800000000000e+07,1.920821094499999937e+00,0.000000000000000000e+00
1.144098400000000000e+07,1.867057704899999893e+00,0.000000000000000000e+00
1.144489600000000000e+07,1.803519058200000025e+00,0.000000000000000000e+00
1.144880800000000000e+07,1.744868040000000065e+00,0.000000000000000000e+00
1.145271200000000000e+07,1.700879812199999952e+00,0.000000000000000000e+00
1.145661200000000000e+07,1.652003860400000024e+00,0.000000000000000000e+00
1.146050800000000000e+07,1.627565956099999989e+00,0.000000000000000000e+00
1.146443600000000000e+07,1.598240470799999979e+00,0.000000000000000000e+00
1.146834800000000000e+07,1.568914985599999978e+00,0.000000000000000000e+00
1.147226800000000000e+07,1.554252147599999967e+00,0.000000000000000000e+00
1.147618800000000000e+07,1.559139728499999933e+00,0.000000000000000000e+00
1.148010800000000000e+07,1.564027404700000012e+00,0.000000000000000000e+00
1.148401200000000000e+07,1.559139728499999933e+00,0.000000000000000000e+00
1.148794000000000000e+07,1.554252147599999967e+00,0.000000000000000000e+00
1.149186800000000000e+07,1.554252147599999967e+00,0.000000000000000000e+00
1.149578800000000000e+07,1.568914985599999978e+00,0.000000000000000000e+00
1.149970800000000000e+07,1.588465309100000056e+00,0.000000000000000000e+00
1.150361200000000000e+07,1.598240470799999979e+00,0.000000000000000000e+00
1.150751600000000000e+07,1.598240470799999979e+00,0.000000000000000000e+00
1.151143200000000000e+07,1.608015632599999911e+00,0.000000000000000000e+00
1.151534000000000000e+07,1.632453536899999946e+00,0.000000000000000000e+00
1.151926800000000000e+07,1.647116279600000066e+00,0.000000000000000000e+00
1.152319600000000000e+07,1.656891441299999990e+00,0.000000000000000000e+00
1.152711600000000000e+07,1.656891441299999990e+00,0.000000000000000000e+00
1.153103600000000000e+07,1.666666602999999913e+00,0.000000000000000000e+00
1.153494800000000000e+07,1.691104650400000020e+00,0.000000000000000000e+00
1.153886400000000000e+07,1.710654973900000098e+00,0.000000000000000000e+00
1.154278000000000000e+07,1.720430135700000029e+00,0.000000000000000000e+00
1.154668400000000000e+07,1.720430135700000029e+00,0.000000000000000000e+00
1.155059200000000000e+07,1.715542554800000064e+00,0.000000000000000000e+00
1.155451200000000000e+07,1.725317716499999987e+00,0.000000000000000000e+00
1.155844000000000000e+07,1.739980459200000107e+00,0.000000000000000000e+00
1.156235200000000000e+07,1.749755620900000030e+00,0.000000000000000000e+00
1.156627200000000000e+07,1.749755620900000030e+00,0.000000000000000000e+00
1.157018800000000000e+07,1.739980459200000107e+00,0.000000000000000000e+00
1.157410400000000000e+07,1.739980459200000107e+00,0.000000000000000000e+00
1.157801600000000000e+07,1.744868040000000065e+00,0.000000000000000000e+00
1.158192000000000000e+07,1.749755620900000030e+00,0.000000000000000000e+00
1.158584000000000000e+07,1.744868040000000065e+00,0.000000000000000000e+00
1.158973600000000000e+07,1.739980459200000107e+00,0.000000000000000000e+00
1.159364000000000000e+07,1.749755620900000030e+00,0.000000000000000000e+00
1.159755600000000000e+07,1.779081106100000031e+00,0.000000000000000000e+00
1.160146800000000000e+07,1.774193525300000074e+00,0.000000000000000000e+00
1.160539600000000000e+07,1.769305944400000108e+00,0.000000000000000000e+00
1.160930800000000000e+07,1.769305944400000108e+00,0.000000000000000000e+00
1.161322800000000000e+07,1.774193525300000074e+00,0.000000000000000000e+00
1.161714800000000000e+07,1.779081106100000031e+00,0.000000000000000000e+00
1.162107200000000000e+07,1.779081106100000031e+00,0.000000000000000000e+00
1.162498000000000000e+07,1.788856267899999963e+00,0.000000000000000000e+00
1.162890000000000000e+07,1.774193525300000074e+00,0.000000000000000000e+00
1.163282800000000000e+07,1.779081106100000031e+00,0.000000000000000000e+00
1.163673200000000000e+07,1.783968686999999997e+00,0.000000000000000000e+00
1.164064400000000000e+07,1.798631429600000109e+00,0.000000000000000000e+00
1.164457200000000000e+07,1.803519058200000025e+00,0.000000000000000000e+00
1.164847600000000000e+07,1.793743848799999929e+00,0.000000000000000000e+00
1.165240400000000000e+07,1.788856267899999963e+00,0.000000000000000000e+00
1.165632400000000000e+07,1.798631429600000109e+00,0.000000000000000000e+00
1.166024400000000000e+07,1.803519058200000025e+00,0.000000000000000000e+00
1.166415600000000000e+07,1.798631429600000109e+00,0.000000000000000000e+00
1.166808400000000000e+07,1.788856267899999963e+00,0.000000000000000000e+00
1.167200800000000000e+07,1.788856267899999963e+00,0.000000000000000000e+00
1.167592400000000000e+07,1.798631429600000109e+00,0.000000000000000000e+00
1.167983600000000000e+07,1.813294315300000070e+00,0.000000000000000000e+00
1.168375600000000000e+07,1.813294315300000070e+00,0.000000000000000000e+00
1.168767600000000000e+07,1.803519058200000025e+00,0.000000000000000000e+00
1.169159600000000000e+07,1.803519058200000025e+00,0.000000000000000000e+00
1.169550400000000000e+07,1.808406638999999982e+00,0.000000000000000000e+00
1.169941200000000000e+07,1.823069476999999994e+00,0.000000000000000000e+00
1.170332400000000000e+07,1.832844638799999926e+00,0.000000000000000000e+00
1.170724800000000000e+07,1.832844638799999926e+00,0.000000000000000000e+00
1.171117600000000000e+07,1.837732219600000105e+00,0.000000000000000000e+00
1.171510000000000000e+07,1.852394962300000003e+00,0.000000000000000000e+00
1.171903200000000000e+07,1.871945285700000072e+00,0.000000000000000000e+00
1.172294800000000000e+07,1.881720447500000004e+00,0.000000000000000000e+00
1.172686800000000000e+07,1.871945285700000072e+00,0.000000000000000000e+00
1.173079200000000000e+07,1.867057704899999893e+00,0.000000000000000000e+00
1.173469200000000000e+07,1.876832866600000038e+00,0.000000000000000000e+00
1.173861600000000000e+07,1.886608028399999970e+00,0.000000000000000000e+00
1.174251600000000000e+07,1.896383190099999894e+00,0.000000000000000000e+00
1.174644000000000000e+07,1.901270771000000082e+00,0.000000000000000000e+00
1.175034000000000000e+07,1.911045932700000005e+00,0.000000000000000000e+00
1.175426400000000000e+07,1.925708675299999895e+00,0.000000000000000000e+00
1.175818400000000000e+07,1.950146675100000060e+00,0.000000000000000000e+00
1.176210400000000000e+07,1.964809417699999949e+00,0.000000000000000000e+00
1.176602400000000000e+07,1.969696998499999907e+00,0.000000000000000000e+00
1.176993600000000000e+07,1.959921836799999983e+00,0.000000000000000000e+00
1.177384800000000000e+07,1.964809417699999949e+00,0.000000000000000000e+00
1.177776800000000000e+07,1.974584579400000095e+00,0.000000000000000000e+00
1.178167600000000000e+07,1.969696998499999907e+00,0.000000000000000000e+00
1.178559600000000000e+07,1.950146675100000060e+00,0.000000000000000000e+00
1.178952000000000000e+07,1.915933513599999971e+00,0.000000000000000000e+00
1.179344400000000000e+07,1.891495609199999928e+00,0.000000000000000000e+00
1.179734800000000000e+07,1.881720447500000004e+00,0.000000000000000000e+00
1.180127200000000000e+07,1.871945285700000072e+00,0.000000000000000000e+00
1.180518800000000000e+07,1.852394962300000003e+00,0.000000000000000000e+00
1.180910800000000000e+07,1.832844638799999926e+00,0.000000000000000000e+00
1.181302800000000000e+07,1.803519058200000025e+00,0.000000000000000000e+00
1.181693200000000000e+07,1.798631429600000109e+00,0.000000000000000000e+00
1.182086000000000000e+07,1.803519058200000025e+00,0.000000000000000000e+00
1.182477200000000000e+07,1.803519058200000025e+00,0.000000000000000000e+00
1.182868400000000000e+07,1.798631429600000109e+00,0.000000000000000000e+00
1.183260400000000000e+07,1.798631429600000109e+00,0.000000000000000000e+00
1.183652000000000000e+07,1.808406638999999982e+00,0.000000000000000000e+00
1.184042000000000000e+07,1.818181896200000036e+00,0.000000000000000000e+00
1.184434000000000000e+07,1.813294315300000070e+00,0.000000000000000000e+00
1.184827200000000000e+07,1.808406638999999982e+00,0.000000000000000000e+00
1.185217200000000000e+07,1.803519058200000025e+00,0.000000000000000000e+00
1.185608400000000000e+07,1.803519058200000025e+00,0.000000000000000000e+00
1.186000400000000000e+07,1.808406638999999982e+00,0.000000000000000000e+00
1.186390000000000000e+07,1.823069476999999994e+00,0.000000000000000000e+00
1.186781600000000000e+07,1.871945285700000072e+00,0.000000000000000000e+00
1.187173600000000000e+07,1.984359741200000027e+00,0.000000000000000000e+00
1.187565200000000000e+07,2.184750795299999826e+00,0.000000000000000000e+00
1.187957200000000000e+07,2.497556209499999902e+00,0.000000000000000000e+00
1.188347600000000000e+07,2.834799575799999971e+00,0.000000000000000000e+00
1.188739600000000000e+07,3.191593408500000173e+00,0.000000000000000000e+00
1.189131600000000000e+07,3.465298175800000102e+00,0.000000000000000000e+00
1.189524400000000000e+07,3.523949146200000104e+00,0.000000000000000000e+00
1.189916400000000000e+07,3.313782930299999929e+00,0.000000000000000000e+00
1.190308000000000000e+07,2.898338317799999952e+00,0.000000000000000000e+00
1.190699600000000000e+07,2.375366687700000146e+00,0.000000000000000000e+00
1.191091600000000000e+07,1.876832866600000038e+00,0.000000000000000000e+00
1.191483600000000000e+07,1.510263919800000076e+00,0.000000000000000000e+00
1.191875600000000000e+07,1.300097703899999901e+00,0.000000000000000000e+00
1.192265200000000000e+07,1.217008829100000078e+00,0.000000000000000000e+00
1.192656800000000000e+07,1.241446733399999891e+00,1.000000000000000000e+00
1.193048400000000000e+07,1.324535727500000037e+00,0.000000000000000000e+00
1.193441200000000000e+07,1.441837787599999920e+00,0.000000000000000000e+00
1.193834000000000000e+07,1.564027404700000012e+00,0.000000000000000000e+00
1.194225200000000000e+07,1.661779022199999956e+00,0.000000000000000000e+00
1.194617200000000000e+07,1.705767393099999918e+00,0.000000000000000000e+00
1.195009200000000000e+07,1.735092878299999919e+00,0.000000000000000000e+00
1.195400400000000000e+07,1.759530782599999954e+00,0.000000000000000000e+00
1.195792400000000000e+07,1.793743848799999929e+00,0.000000000000000000e+00
1.196184400000000000e+07,1.813294315300000070e+00,0.000000000000000000e+00
1.196577200000000000e+07,1.823069476999999994e+00,0.000000000000000000e+00
1.196967600000000000e+07,1.823069476999999994e+00,0.000000000000000000e+00
1.197358800000000000e+07,1.832844638799999926e+00,0.000000000000000000e+00
1.197750000000000000e+07,1.852394962300000003e+00,0.000000000000000000e+00
1.198143200000000000e+07,1.871945285700000072e+00,0.000000000000000000e+00
1.198534800000000000e+07,1.876832866600000038e+00,0.000000000000000000e+00
1.198926800000000000e+07,1.876832866600000038e+00,0.000000000000000000e+00
1.199318000000000000e+07,1.886608028399999970e+00,0.000000000000000000e+00
1.199709600000000000e+07,1.906158351800000039e+00,0.000000000000000000e+00
1.200101600000000000e+07,1.920821094499999937e+00,0.000000000000000000e+00
1.200492800000000000e+07,1.930596256200000083e+00,0.000000000000000000e+00
1.200884800000000000e+07,1.930596256200000083e+00,0.000000000000000000e+00
1.201276800000000000e+07,1.935483837100000049e+00,0.000000000000000000e+00
1.201668400000000000e+07,1.950146675100000060e+00,0.000000000000000000e+00
1.202060000000000000e+07,1.964809417699999949e+00,0.000000000000000000e+00
1.202451200000000000e+07,1.964809417699999949e+00,0.000000000000000000e+00
1.202843200000000000e+07,1.964809417699999949e+00,0.000000000000000000e+00
1.203235200000000000e+07,1.964809417699999949e+00,0.000000000000000000e+00
1.203627200000000000e+07,1.984359741200000027e+00,0.000000000000000000e+00
1.204018800000000000e+07,2.008797645500000062e+00,0.000000000000000000e+00
1.204409200000000000e+07,2.028347968999999917e+00,0.000000000000000000e+00
1.204799600000000000e+07,2.008797645500000062e+00,0.000000000000000000e+00
1.205190000000000000e+07,2.018572807299999994e+00,0.000000000000000000e+00
1.205581200000000000e+07,2.033235549900000105e+00,0.000000000000000000e+00
1.205972400000000000e+07,2.057673454200000140e+00,0.000000000000000000e+00
1.206362800000000000e+07,2.072336196799999808e+00,0.000000000000000000e+00
1.206754000000000000e+07,2.077223777699999996e+00,0.000000000000000000e+00
1.207146000000000000e+07,2.086998939499999928e+00,0.000000000000000000e+00
1.207537200000000000e+07,2.101661682100000039e+00,0.000000000000000000e+00
1.207929200000000000e+07,2.130987405700000004e+00,0.000000000000000000e+00
1.208319600000000000e+07,2.155425310100000047e+00,0.000000000000000000e+00
1.208712400000000000e+07,2.179863214400000082e+00,0.000000000000000000e+00
1.209104400000000000e+07,2.184750795299999826e+00,0.000000000000000000e+00
1.209496400000000000e+07,2.214076280500000049e+00,0.000000000000000000e+00
1.209887600000000000e+07,2.248289346600000016e+00,0.000000000000000000e+00
1.210279600000000000e+07,2.272727251000000059e+00,0.000000000000000000e+00
1.210670000000000000e+07,2.262952089300000136e+00,0.000000000000000000e+00
1.211061200000000000e+07,2.262952089300000136e+00,0.000000000000000000e+00
1.211452400000000000e+07,2.267839670099999871e+00,0.000000000000000000e+00
1.211844400000000000e+07,2.282502412699999983e+00,0.000000000000000000e+00
1.212236400000000000e+07,2.287389993600000171e+00,0.000000000000000000e+00
1.212627600000000000e+07,2.277614831899999803e+00,0.000000000000000000e+00
1.213019600000000000e+07,2.262952089300000136e+00,0.000000000000000000e+00
1.213411600000000000e+07,2.253176927500000204e+00,0.000000000000000000e+00
1.213804400000000000e+07,2.248289346600000016e+00,0.000000000000000000e+00
1.214196400000000000e+07,2.238514184900000092e+00,0.000000000000000000e+00
1.214588400000000000e+07,2.204301118800000125e+00,0.000000000000000000e+00
1.214980400000000000e+07,2.155425310100000047e+00,0.000000000000000000e+00
1.215371600000000000e+07,2.101661682100000039e+00,0.000000000000000000e+00
1.215763600000000000e+07,2.057673454200000140e+00,0.000000000000000000e+00
1.216154800000000000e+07,2.003910064599999874e+00,0.000000000000000000e+00
1.216544400000000000e+07,1.940371513299999906e+00,0.000000000000000000e+00
1.216937600000000000e+07,1.867057704899999893e+00,0.000000000000000000e+00
1.217328000000000000e+07,1.808406638999999982e+00,0.000000000000000000e+00
1.217718000000000000e+07,1.769305944400000108e+00,0.000000000000000000e+00
1.218109200000000000e+07,1.720430135700000029e+00,0.000000000000000000e+00
1.218501600000000000e+07,1.686216926499999991e+00,0.000000000000000000e+00
1.218894000000000000e+07,1.637341117799999912e+00,0.000000000000000000e+00
1.219286400000000000e+07,1.622678375200000023e+00,0.000000000000000000e+00
1.219678000000000000e+07,1.598240470799999979e+00,0.000000000000000000e+00
1.220068400000000000e+07,1.583577728200000090e+00,0.000000000000000000e+00
1.220460400000000000e+07,1.568914985599999978e+00,0.000000000000000000e+00
1.220851600000000000e+07,1.554252147599999967e+00,0.000000000000000000e+00
1.221244400000000000e+07,1.549364566800000009e+00,0.000000000000000000e+00
1.221636800000000000e+07,1.559139728499999933e+00,0.000000000000000000e+00
1.222028400000000000e+07,1.578690147299999902e+00,0.000000000000000000e+00
1.222420400000000000e+07,1.583577728200000090e+00,0.000000000000000000e+00
1.222813200000000000e+07,1.583577728200000090e+00,0.000000000000000000e+00
1.223205600000000000e+07,1.593352890000000022e+00,0.000000000000000000e+00
1.223596800000000000e+07,1.608015632599999911e+00,0.000000000000000000e+00
1.223988400000000000e+07,1.632453536899999946e+00,0.000000000000000000e+00
1.224380400000000000e+07,1.652003860400000024e+00,0.000000000000000000e+00
1.224770800000000000e+07,1.656891441299999990e+00,0.000000000000000000e+00
1.225162800000000000e+07,1.661779022199999956e+00,0.000000000000000000e+00
